11,11,11,11,11,11,11,10,11,11,11,11,11,11,10,11,11,11,11,10,11,11,10,10,11,11,11,11,11,11,10,11,11,11,11,11,11,11,11,10,11,10,11,11,11,10,10,11,11,10,11,11,11,11,10,11,11,11,11,11,11,11,11,10,11,11,11,11,11,11,11,11,11,11,11,11,11,10,11,11,11,10,10,11,11,11,11,11,11,11,11,11,10,11,11,11,11,12,11,11,11,11,10,11,11,11,11,12,11,11,11,11,11,10,11,11,11,11,10,12,11,11,11,11,11,11,10,11,11,10,11,11,11,11,11,10,11,10,11,11,11,11,11,11,10,11,11,11,11,11,11,11,11,11,11,11,11,11,11,11,11,11,11,11,11,11,11,11,11,11,11,11,11,11,11,11,11,11,11,11,11,11,11,11,11,11,11,11,11,11,11,11,10,11,11,11,11,11,11,11,11,10,11,11,11,11,12,11,11,11,11,11,11,11,11,11,11,11,11,11,10,11,11,11,11,12,12,12,12,12,12,12,12,13,12,13,13,14,13,13,13,14,14,14,14,14,13,13,13,13,14,14,13,13,14,14,14,13,13,14,13,14,13,14,13,13,13,13,14,14,14,14,13,13,13,13,14,14,14,14,14,13,14,14,15,15,16,16,18,18,21,20,20,20,21,21,21,21,21,20,20,21,20,20,20,19,19,19,19,19,18,19,18,18,18,18,18,18,18,19,21,21,23,24,26,26,26,25,25,25,25,25,25,25,25,25,24,23,26,29,32,33,36,37,39,40,39,39,41,40,41,43,41,41,42,42,42,45,50,53,53,57,57,56,59,59,61,60,62,61,61,61,60,60,62,60,59,60,60,59,60,62,64,64,64,64,63,62,61,62,63,64,64,66,69,69,71,71,70,70,71,70,72,74,76,78,77,79,79,84,86,85,85,91,93,94,93,94,100,103,102,102,100,99,98,102,104,107,109,109,110,111,109,110,110,109,108,105,103,101,99,99,97,96,104,112,113,119,123,121,123,123,125,128,126,127,130,131,132,133,132,131,129,128,126,124,123,123,123,120,118,119,119,118,118,129,140,139,139,141,146,145,143,142,144,143,146,147,144,143,142,141,139,141,145,144,143,150,152,151,150,150,151,147,145,143,145,157,163,170,175,178,183,182,180,177,175,177,179,179,177,181,182,185,188,188,184,180,177,174,172,171,175,174,171,170,167,165,161,160,159,160,164,162,160,160,165,167,176,179,182,185,191,211,214,222,231,231,234,240,235,230,226,223,220,218,229,233,234,241,237,232,233,231,228,225,223,225,223,222,219,218,218,215,215,223,223,225,226,224,241,248,244,243,238,238,251,262,264,260,258,253,252,249,244,247,250,258,267,267,267,263,257,255,251,247,248,245,247,246,249,245,244,243,239,235,231,226,224,220,221,217,216,217,214,209,208,204,200,199,198,194,192,191,192,190,185,183,184,183,179,178,180,178,175,179,179,182,186,186,195,197,193,191,194,193,190,195,199,197,195,205,210,216,212,211,214,212,208,205,204,206,204,203,200,201,203,208,209,211,212,208,211,214,216,223,233,241,240,237,245,246,249,255,253,256,255,254,253,248,249,246,249,247,246,246,243,243,243,242,239,239,237,236,236,238,234,231,231,234,236,237,242,239,234,234,231,227,227,223,220,218,219,218,216,214,210,209,207,203,202,198,195,194,195,193,192,197,195,199,201,199,200,198,196,196,193,189,186,182,178,176,173,174,171,168,166,163,163,163,165,165,163,166,165,162,161,166,165,173,175,171,172,169,170,180,185,183,182,182,184,181,180,180,179,179,180,177,175,185,185,184,181,182,180,177,176,176,175,175,174,173,174,176,176,180,177,176,174,171,168,166,168,168,168,166,170,176,177,178,180,177,175,178,176,173,176,175,172,169,166,165,167,171,171,175,176,184,182,179,178,177,173,175,175,177,176,174,176,174,172,168,166,165,175,177,177,175,174,171,172,171,170,172,174,175,179,176,177,178,177,176,173,169,166,164,162,160,159,158,155,155,162,162,168,169,170,169,168,166,163,165,161,159,159,161,159,162,167,164,161,161,160,157,157,156,157,154,155,156,161,160,160,159,157,153,150,147,147,146,144,142,140,138,138,136,134,133,133,131,138,141,143,143,140,137,134,132,130,128,125,123,121,119,116,120,123,122,120,119,120,119,117,114,112,110,108,106,107,109,108,108,107,105,105,106,106,105,106,108,107,110,112,111,110,10,11,10,11,11,11
59,59,58,59,59,59,59,59,58,58,58,58,58,58,58,58,59,58,59,59,59,58,58,58,58,58,58,59,59,59,59,60,59,59,59,59,59,59,59,58,58,58,59,58,59,59,58,58,58,59,59,59,59,59,59,59,59,58,58,59,58,58,59,59,59,59,60,60,60,60,59,59,59,59,59,59,59,59,59,59,59,59,59,59,59,59,59,60,60,59,60,60,60,60,60,60,60,60,60,59,60,60,59,60,59,59,59,59,59,60,59,59,59,59,59,58,58,58,58,58,59,59,60,60,61,61,61,61,61,61,61,61,60,61,61,61,61,61,61,62,62,62,61,61,61,61,61,61,61,61,61,60,60,61,61,62,62,62,62,62,62,62,62,61,61,62,61,61,61,60,61,61,60,61,61,60,60,60,60,61,60,61,61,60,61,61,61,61,61,61,62,62,62,62,62,62,62,62,63,62,62,62,62,62,62,62,61,61,61,61,61,61,62,62,62,62,62,62,63,62,62,62,62,62,62,62,62,63,63,62,62,62,62,62,62,62,62,62,61,61,61,61,61,62,62,62,62,62,61,62,62,62,62,63,63,63,64,63,64,65,66,65,66,66,66,66,66,66,66,65,66,66,66,67,67,67,68,68,69,69,69,69,69,68,68,68,67,68,68,68,68,67,67,67,67,67,67,67,67,68,68,68,68,68,69,69,69,69,69,69,69,70,70,70,70,71,71,72,72,73,73,73,74,74,74,74,74,74,74,75,75,75,76,76,76,75,76,75,75,75,74,75,76,75,75,75,75,75,76,76,76,78,77,78,78,78,78,78,78,78,79,78,78,79,80,79,80,80,80,82,82,81,81,81,82,83,83,84,85,85,85,85,85,86,86,86,88,88,89,89,89,89,89,89,89,89,89,90,90,91,91,91,91,91,91,91,91,92,92,92,92,93,94,94,94,93,94,94,95,95,95,97,99,99,99,99,97,99,101,99,100,102,102,102,102,101,102,104,105,104,106,105,105,106,108,108,108,108,108,107,108,108,108,108,108,107,108,107,108,107,107,106,107,107,107,107,106,106,107,108,109,109,109,108,110,112,111,111,111,112,111,111,110,109,108,111,111,111,110,111,109,110,111,112,113,112,112,113,112,111,111,112,113,113,113,112,110,110,111,112,112,111,111,112,112,112,112,113,112,111,111,112,113,113,112,113,113,112,112,112,111,111,113,114,113,113,113,112,111,111,112,113,112,111,112,112,110,110,110,109,108,107,106,108,108,109,108,108,108,109,109,109,110,110,109,109,108,107,107,107,108,108,109,110,110,109,109,107,106,107,108,108,107,107,107,107,107,107,107,107,106,106,106,106,106,106,106,106,107,108,107,107,107,107,107,107,107,108,109,111,111,111,111,109,109,110,111,111,112,113,114,113,112,113,113,114,112,112,112,111,111,111,110,110,110,109,109,109,111,111,111,113,113,112,113,112,111,110,110,109,108,109,110,109,108,109,109,108,107,106,106,107,106,106,107,108,108,106,106,108,107,108,108,109,109,108,108,108,109,107,106,106,107,107,107,106,106,105,106,105,104,103,103,102,101,100,101,100,99,100,100,99,101,101,100,99,99,99,98,99,99,98,98,98,97,97,97,98,98,100,100,100,98,98,97,102,102,102,101,100,101,101,102,102,103,102,101,101,100,100,99,99,98,99,100,99,99,98,98,97,96,98,97,98,98,97,97,98,97,97,96,96,95,95,95,94,94,93,92,92,91,91,91,91,91,91,91,90,90,89,89,88,89,89,90,89,89,89,89,88,89,89,88,88,88,90,91,90,89,90,90,90,90,90,89,89,89,89,88,89,89,89,89,89,89,90,89,89,90,90,90,89,89,90,90,91,91,91,91,90,90,90,90,89,89,88,87,88,88,88,88,88,88,88,88,88,88,89,87,87,87,87,88,87,87,87,86,86,86,86,85,86,88,88,88,88,88,87,87,87,87,85,86,86,86,87,86,86,85,85,84,84,84,83,84,83,83,82,83,83,84,86,85,84,84,84,84,83,83,83,83,82,82,82,81,82,81,81,80,80,80,82,82,81,81,81,81,79,79,80,80,79,79,80,79,79,78,78,78,78,78,78,78,78,79,78,77,77,77,77,76,76,77,76,76,76,76,76,76,76,76,76,76,76,75,76,76,77,76,77,77,78,77,76,76,76,75,75,75,76,75,76,77,76,76,75,75,75,75,74,74,74,74,73,73,73,73,73,74,73,73,73,72,73,75,63,62,64,65,65,65
11,11,11,10,10,11,11,11,11,11,11,11,11,11,11,11,11,11,10,11,12,10,11,10,11,11,11,11,11,11,11,11,11,11,11,11,11,11,11,11,10,10,11,11,11,11,11,11,11,11,11,11,11,11,11,11,11,11,11,11,11,11,11,11,11,10,11,11,11,11,11,11,11,11,11,11,11,10,11,11,11,11,11,11,11,10,10,11,11,11,11,11,11,11,11,11,12,12,11,11,11,11,11,11,11,11,11,11,11,11,11,11,11,11,11,11,11,11,11,11,11,11,11,11,11,11,11,11,11,11,11,11,11,11,11,11,11,10,11,11,11,11,11,11,11,11,11,11,11,11,11,11,11,11,11,11,11,11,11,11,11,11,11,11,11,11,11,11,11,11,11,11,11,11,11,11,10,11,11,11,11,11,11,11,11,11,11,11,11,11,11,11,11,11,11,11,11,11,10,11,11,11,11,11,11,11,10,11,11,11,11,11,11,11,10,10,11,11,11,11,11,11,11,11,10,11,11,11,11,11,11,11,10,11,11,11,11,11,11,11,11,11,10,11,12,11,11,11,11,11,11,11,11,11,11,10,11,10,11,11,11,11,11,11,11,10,11,10,10,11,11,11,11,11,11,11,11,11,10,11,11,11,11,11,11,11,11,11,11,11,11,11,11,11,11,11,11,11,10,10,11,11,11,11,11,11,11,11,11,11,11,11,11,11,11,11,11,10,11,11,11,10,11,11,11,11,11,11,11,11,11,11,11,11,11,11,11,11,11,11,11,11,11,11,11,11,11,11,11,11,11,10,11,11,11,11,11,11,11,11,11,11,11,12,11,12,11,11,11,11,11,12,11,11,11,11,12,11,12,11,11,11,11,11,11,11,11,11,11,11,11,11,11,11,11,11,11,11,12,12,12,13,13,13,13,13,13,13,13,13,13,13,13,13,13,13,13,13,13,13,12,14,16,19,23,24,25,26,33,38,38,42,47,53,56,56,62,70,71,70,68,67,66,65,65,64,64,63,64,64,63,68,75,78,79,83,85,88,96,98,98,96,95,93,93,92,94,98,105,112,115,115,119,126,129,127,125,123,121,119,118,118,118,122,126,125,130,141,149,147,144,143,139,139,137,134,133,131,131,129,137,138,137,135,135,138,138,138,138,141,141,140,138,136,134,134,132,132,135,135,139,139,139,139,143,141,143,146,149,151,153,159,158,160,163,168,168,165,163,161,159,160,172,180,180,180,177,174,172,168,167,165,166,168,165,163,159,156,158,160,157,156,153,151,153,161,163,165,168,171,170,175,174,180,185,183,182,181,180,185,182,185,194,193,196,206,204,210,214,216,223,223,219,216,213,208,205,201,197,195,194,198,195,192,190,191,194,194,193,195,200,199,195,197,202,201,200,198,197,203,203,206,206,204,204,203,224,236,252,258,257,256,253,251,249,250,250,247,245,247,246,242,237,236,233,244,251,256,253,260,258,253,250,251,259,276,277,273,270,266,268,266,269,270,276,274,274,271,265,265,265,260,256,260,275,276,285,287,294,290,288,294,295,295,296,299,296,292,291,289,287,284,284,280,282,285,285,286,286,285,284,280,279,275,274,271,271,279,282,280,282,278,282,281,288,295,290,289,285,283,279,284,280,288,291,288,289,284,280,289,293,298,298,304,301,299,295,300,311,317,335,335,341,343,337,338,332,329,327,323,324,319,319,317,313,316,314,320,321,320,321,321,319,316,312,311,305,300,296,291,287,281,282,282,283,281,276,273,273,277,275,275,270,267,264,260,263,263,264,258,255,261,269,268,271,278,276,273,268,265,264,261,261,259,266,267,266,262,257,254,250,249,249,246,248,248,246,244,243,240,238,240,236,231,227,223,220,219,216,214,212,211,211,212,217,225,234,230,227,227,223,221,226,226,225,222,220,223,223,221,221,222,221,217,216,216,212,208,210,213,211,208,207,205,204,203,200,202,200,203,203,200,201,199,194,191,192,190,188,187,187,183,181,185,188,187,185,186,182,186,189,189,186,186,184,181,180,181,181,184,181,177,178,179,181,188,190,189,195,197,195,194,193,190,189,193,193,191,193,194,192,190,189,186,183,179,178,180,179,176,180,179,179,184,183,181,180,180,177,175,172,170,170,170,168,170,170,167,164,164,166,163,160,159,159,156,157,157,161,161,166,167,171,171,169,167,166,164,162,160,156,156,159,160,160,158,156,155,152,151,152,155,153,151,150,153,151,149,151,153,153,154,152,11,11,12,11,11,11,11,11
65,64,64,64,64,65,64,63,63,64,64,63,63,63,63,63,62,62,62,62,62,62,62,62,62,62,62,62,62,61,62,62,61,61,61,61,61,60,60,60,60,60,59,60,60,60,60,59,60,60,60,60,61,60,61,60,60,60,60,60,61,60,60,60,60,60,60,60,60,60,60,60,60,59,59,59,59,59,59,59,59,59,59,58,59,58,57,58,58,58,58,58,59,59,58,59,58,57,58,58,58,58,58,58,57,57,57,57,57,57,57,57,57,57,57,57,57,57,57,57,57,57,57,57,57,57,57,57,57,57,57,57,57,57,57,56,56,57,56,57,56,57,56,56,57,56,57,57,56,57,56,56,56,57,56,56,56,57,56,56,56,56,56,56,56,56,56,56,56,56,56,57,57,56,56,56,56,56,56,56,56,56,57,57,57,57,57,57,57,57,57,57,57,57,57,57,57,56,57,57,57,57,57,57,57,57,58,57,57,57,57,57,57,57,57,57,57,56,57,56,56,56,57,56,56,57,57,57,58,57,58,58,58,58,58,57,57,58,58,58,58,57,57,57,57,58,57,57,57,57,57,58,57,57,57,57,57,57,57,57,57,57,57,58,58,58,59,58,59,60,63,64,64,64,65,66,68,70,71,71,72,73,74,74,73,74,75,80,80,82,82,85,89,93,95,97,99,100,102,105,108,107,108,108,110,112,114,115,116,116,116,119,121,126,127,128,130,130,131,136,137,142,145,155,164,163,166,172,171,169,167,165,164,166,169,172,173,184,205,220,229,228,230,229,229,228,225,224,223,221,218,222,225,227,228,230,238,247,249,251,257,264,268,268,266,267,263,261,261,260,256,257,263,261,262,270,278,282,279,276,274,270,267,265,266,269,268,270,280,290,295,295,296,292,288,289,287,285,282,278,275,272,268,265,262,259,255,255,258,260,259,257,255,253,252,253,252,249,246,242,239,235,232,229,227,224,222,220,217,214,212,210,208,206,204,203,201,199,197,194,193,191,189,188,188,185,184,182,180,177,176,174,173,171,170,169,168,167,164,164,163,161,160,159,157,156,154,153,151,150,149,148,148,146,144,143,141,140,138,136,135,133,132,131,129,127,126,124,123,122,120,119,117,116,115,115,113,111,110,109,108,108,107,106,105,104,103,103,104,103,102,101,102,101,101,101,102,101,100,99,99,100,100,100,102,102,103,103,104,105,105,106,107,107,107,107,108,108,109,110,110,109,110,110,111,111,111,112,114,114,115,116,116,116,117,118,118,119,119,120,121,121,123,124,125,128,127,127,128,128,128,128,128,129,131,131,132,133,133,133,133,134,134,135,135,135,135,136,136,134,134,135,137,136,137,138,137,137,138,138,139,141,141,140,140,141,140,140,140,142,141,140,139,137,138,141,140,141,141,140,141,143,144,143,143,142,141,140,139,138,139,140,141,140,141,140,140,141,140,139,141,141,140,141,141,141,140,140,139,141,143,143,142,140,139,138,140,139,139,139,138,139,136,137,138,138,136,135,136,139,138,138,137,136,136,136,139,138,136,136,137,137,137,137,138,137,136,136,138,140,140,139,139,138,137,136,135,137,137,136,135,134,132,133,134,134,134,132,132,133,132,131,130,129,129,129,128,129,131,131,130,130,132,133,131,132,130,130,130,130,129,129,129,129,130,129,127,129,130,130,129,130,132,132,131,130,129,129,128,127,126,128,129,129,127,126,125,127,126,124,124,124,124,122,123,122,121,121,122,121,121,120,120,120,120,119,119,117,117,120,120,119,118,118,117,116,114,114,114,113,112,112,113,114,113,112,113,114,113,113,113,113,114,114,113,112,111,110,110,111,111,111,110,109,108,108,108,107,107,105,105,104,104,103,103,104,103,102,102,100,100,100,100,99,99,99,100,98,98,97,97,97,97,96,96,97,97,96,96,96,97,96,96,95,95,96,94,94,94,95,96,96,95,96,95,95,95,96,95,95,94,94,94,93,94,94,95,95,94,95,94,94,93,94,94,95,94,94,93,93,94,94,93,91,92,91,91,90,90,90,89,89,89,89,89,88,87,88,87,87,87,86,86,86,86,87,87,88,88,89,88,87,86,86,86,86,86,86,88,87,87,87,87,88,89,88,88,88,87,86,86,86,85,85,84,84,84,84,83,83,82,83,82,83,83,82,81,80,80,80,80,80,80,82,83,83,82,83,83,83,83,83,84,85,84,84,84,84,83,83,82,81,81,80,81,80,80,82,81,82,82,82,82,58,58,58,58,58,59,58,58
12,12,12,12,12,11,12,12,11,12,11,12,11,11,12,12,12,11,12,11,12,11,12,12,11,12,12,12,12,12,11,11,11,12,11,12,11,11,11,12,12,11,12,11,11,11,11,12,11,11,11,11,11,11,12,12,11,12,12,12,12,12,12,11,11,12,11,11,11,12,12,11,12,12,11,12,12,12,11,12,11,11,11,11,12,12,11,11,11,11,12,12,12,12,11,12,10,11,12,11,11,11,11,11,11,11,11,11,11,11,12,12,12,12,11,11,11,12,11,11,12,12,11,11,12,12,11,11,11,11,12,12,12,11,11,12,11,12,12,11,11,11,11,11,11,11,11,11,11,11,11,11,11,11,12,11,11,11,11,11,11,11,11,11,11,11,12,11,11,12,11,11,12,11,12,11,11,11,11,11,11,12,12,11,11,11,11,11,11,12,12,11,11,12,11,12,11,11,11,11,11,12,12,11,11,11,11,12,11,11,11,11,11,11,12,11,11,11,11,11,11,12,12,12,11,11,11,11,12,12,11,11,11,11,11,11,11,12,12,13,13,13,13,13,13,13,13,13,12,13,12,13,13,13,13,13,16,21,21,22,25,26,26,26,26,27,28,28,28,28,28,29,29,34,42,45,46,45,45,44,46,54,62,63,69,81,88,93,95,94,96,97,97,104,110,109,109,111,110,110,110,109,107,107,112,114,111,112,115,119,120,125,134,140,140,147,149,150,149,148,150,158,168,171,170,170,168,175,178,177,174,173,170,170,175,178,176,173,170,173,174,181,190,192,195,204,222,230,243,249,244,247,277,294,313,332,331,345,349,346,342,337,338,339,333,336,336,346,344,341,340,348,345,344,345,345,353,372,384,392,388,393,388,405,416,417,428,423,441,446,445,451,445,440,432,427,420,428,431,440,432,424,419,423,425,418,433,441,441,440,439,432,425,421,416,413,407,400,398,393,393,393,385,387,385,381,385,380,384,389,397,410,423,419,412,415,409,415,421,413,409,406,401,402,398,396,390,388,384,379,373,367,369,372,366,359,356,357,354,346,340,333,328,322,317,315,309,308,305,302,301,299,297,291,294,295,292,286,280,275,272,267,267,265,260,257,252,247,244,240,235,230,226,222,218,213,210,207,204,201,199,197,194,196,200,199,200,197,193,189,186,184,180,176,173,170,167,166,166,162,159,156,153,151,148,146,144,142,140,138,136,134,132,131,129,126,126,124,124,122,120,120,121,120,119,117,115,115,114,112,111,111,111,109,108,108,107,105,105,105,104,103,102,102,101,101,100,99,99,98,97,97,96,95,95,94,93,93,92,92,92,90,90,89,89,88,88,87,87,86,85,84,84,84,84,83,82,81,81,80,80,79,79,78,78,76,75,75,75,74,74,73,72,72,71,71,70,69,68,68,67,66,65,64,64,64,63,62,62,61,61,61,61,61,60,60,60,59,58,58,57,57,56,56,56,56,55,55,54,54,53,53,52,52,51,52,51,51,51,50,50,49,48,48,47,48,47,46,45,45,44,43,43,43,43,42,43,41,42,41,41,41,41,41,40,40,40,39,39,39,38,38,37,37,37,37,37,36,36,36,35,35,34,34,33,33,33,32,32,32,31,31,30,30,30,30,30,30,29,29,29,29,28,28,28,28,28,27,27,26,26,26,26,26,25,25,25,25,25,24,24,24,25,23,23,23,24,23,23,23,22,22,22,22,22,22,22,21,21,22,22,21,21,21,21,21,21,20,20,20,19,20,20,20,20,19,19,19,20,20,19,20,19,19,19,19,19,19,19,19,19,18,18,18,18,18,18,18,18,18,18,18,18,18,18,18,18,17,17,18,18,17,17,17,17,17,17,17,17,16,18,16,16,16,16,16,16,16,16,16,16,16,16,16,16,15,15,15,15,15,15,15,15,15,15,15,15,15,15,15,15,15,15,15,15,15,15,15,15,15,15,14,15,15,14,15,14,14,14,14,14,14,15,15,14,14,15,14,14,14,15,15,15,15,15,15,14,14,15,14,14,14,14,15,14,14,14,14,13,14,14,14,15,14,14,14,14,14,14,14,14,14,14,13,13,14,13,14,13,13,13,13,13,13,13,13,13,13,13,13,13,13,13,12,13,13,13,13,13,13,13,13,12,13,13,13,13,13,13,13,13,12,13,13,13,12,13,13,13,13,12,12,13,12,13,12,13,12,12,12,12,13,13,12,12,12,12,13,12,12,12,12,12,12,12,12,13,12,12,12,12,10,11,10,11,10,11,10,11,11,11
58,57,57,57,58,58,57,57,58,58,58,57,57,57,57,57,57,59,57,58,58,58,58,57,58,58,57,57,57,57,57,57,58,58,57,57,57,58,57,57,57,57,57,57,57,57,57,57,57,57,57,58,58,58,57,57,57,57,57,57,56,57,57,56,57,57,57,57,56,56,56,56,56,56,56,57,57,57,56,57,56,56,56,56,57,57,57,57,57,57,57,57,57,57,57,57,57,57,57,57,57,58,58,57,58,58,58,58,58,58,58,58,57,58,58,57,58,58,57,58,57,57,58,57,57,57,57,57,57,57,57,57,57,58,58,58,58,58,58,57,58,57,58,57,57,57,57,57,57,57,57,57,57,57,57,58,57,58,57,57,57,57,57,57,57,57,56,57,58,59,59,59,60,60,60,62,62,63,63,62,63,64,64,65,65,67,67,68,68,68,67,67,67,67,67,70,71,72,75,78,80,80,82,88,98,104,107,112,114,112,111,111,111,111,110,110,109,108,107,106,106,106,105,106,105,104,103,103,102,101,100,100,99,100,101,101,101,100,101,103,102,102,102,101,100,99,98,99,99,99,99,98,97,96,95,95,95,94,93,93,92,90,90,90,89,88,88,87,86,86,85,85,84,84,83,83,82,81,81,80,81,80,79,79,78,78,77,77,77,77,77,76,75,76,74,74,74,74,73,73,73,73,73,73,73,73,73,73,73,72,73,72,72,72,72,71,71,73,74,74,75,75,75,75,75,75,74,74,75,75,76,78,78,78,78,78,78,78,80,81,82,84,85,85,88,87,87,87,90,92,91,92,91,93,93,95,99,100,99,99,98,99,99,99,100,101,103,102,102,106,108,107,110,110,109,108,108,107,106,107,111,112,114,113,112,112,112,113,118,118,120,119,121,122,121,121,121,123,124,127,130,129,127,126,125,126,129,129,127,126,128,130,130,131,130,130,130,132,134,133,132,133,134,133,137,137,135,134,134,138,140,139,140,140,138,139,137,136,137,136,139,141,140,140,139,139,141,142,147,146,145,143,141,141,142,142,141,142,140,140,140,142,142,141,141,139,139,139,139,139,139,139,139,137,136,137,138,139,137,136,136,136,136,136,135,135,134,136,136,136,136,136,136,136,137,137,137,137,137,136,137,139,139,139,140,141,140,139,139,137,136,135,133,132,131,129,129,130,130,128,129,128,129,128,129,129,130,130,129,129,127,126,124,123,121,120,119,118,116,116,115,114,113,112,111,112,111,110,110,109,109,111,111,111,111,111,111,111,112,111,112,113,114,115,115,115,114,113,112,111,112,110,110,109,108,107,107,106,105,104,103,102,101,101,103,102,102,102,102,101,100,100,99,98,97,97,96,95,94,94,93,92,91,91,90,89,89,89,89,88,88,87,87,87,88,87,86,86,85,85,85,85,86,86,87,88,88,87,88,88,89,91,92,92,91,91,91,91,91,91,90,89,89,88,88,88,89,90,90,90,92,92,93,93,93,93,92,92,91,92,91,90,89,89,88,88,87,88,89,89,91,92,93,94,94,94,93,93,94,95,96,96,96,95,95,94,94,95,94,94,93,94,93,92,91,90,91,91,92,93,93,93,94,92,92,93,92,93,94,94,95,95,95,94,94,94,94,94,94,95,96,96,96,96,96,97,98,98,98,98,97,98,100,102,103,103,102,101,101,102,102,102,101,101,102,102,101,102,101,100,100,101,101,100,100,100,99,99,99,98,99,99,100,100,101,103,104,106,106,107,108,108,108,108,107,107,107,106,106,106,106,107,108,110,112,113,113,114,113,112,111,110,109,108,107,107,107,107,108,108,107,107,107,108,106,106,105,104,104,104,105,106,106,105,105,104,104,104,104,105,106,106,105,105,104,104,103,103,103,103,105,106,105,105,105,106,107,108,108,107,106,105,105,105,105,105,105,105,104,104,104,104,103,102,102,101,101,100,101,102,104,105,104,105,106,106,105,104,104,103,103,102,101,101,102,102,102,102,101,101,100,100,99,99,99,99,100,100,100,101,100,100,100,100,99,99,99,98,98,97,97,97,97,97,97,97,96,95,95,95,95,94,95,94,95,94,94,93,93,93,92,92,92,92,92,93,91,91,91,90,90,90,89,90,90,90,90,90,89,90,90,89,89,88,88,87,87,86,85,85,85,85,86,85,86,85,85,85,85,85,85,85,84,85,83,82,82,81,81,81,81,80,79,80,80,79,79,79,79,79,78,77,77,77,77,77,77,76,76,76,75,69,70,70,70,71,72,72,72,73,74
11,11,11,10,10,11,10,11,11,10,11,11,11,10,10,11,11,11,11,11,11,10,11,11,11,11,10,11,11,11,11,11,11,11,10,11,11,11,11,11,11,11,11,11,11,11,11,11,11,11,11,11,11,11,10,10,11,11,11,10,10,10,11,10,11,11,11,11,10,11,11,10,10,11,11,11,10,10,11,10,11,10,11,10,11,11,11,10,10,11,10,11,10,11,10,10,10,11,10,10,11,11,11,11,11,10,10,11,11,11,10,10,11,11,11,11,10,10,11,11,10,11,11,10,11,11,10,11,11,11,10,11,11,11,10,11,11,11,11,10,10,10,10,11,11,11,10,11,10,11,10,11,11,10,11,10,10,10,11,10,10,11,11,10,10,10,11,14,16,18,18,20,21,22,23,23,23,23,23,24,25,26,31,37,39,40,47,51,54,56,54,53,55,57,57,58,63,67,66,66,65,65,65,64,63,65,63,63,63,64,63,61,62,66,72,75,76,82,84,83,82,83,83,82,82,81,80,78,78,78,80,81,81,83,82,81,80,78,77,77,77,78,78,77,76,77,78,78,80,83,82,82,84,86,89,90,91,90,88,87,86,85,83,82,82,82,81,80,80,82,82,81,80,79,80,82,82,80,83,94,106,111,118,126,129,137,141,141,140,143,143,145,143,141,139,138,145,156,157,158,156,157,167,173,177,185,191,188,186,187,188,187,187,185,182,179,176,173,174,174,180,177,176,173,172,170,172,181,185,186,183,183,190,195,194,197,198,196,198,201,212,210,214,216,214,211,208,205,211,223,227,227,223,224,225,225,223,221,217,219,225,226,223,220,222,228,237,236,233,230,236,245,240,240,238,242,240,237,233,231,228,224,220,219,216,211,208,203,200,195,193,190,195,195,194,192,189,185,185,184,184,183,184,189,192,194,203,202,198,196,193,194,197,198,196,192,188,191,202,200,197,194,196,195,191,186,182,180,177,174,171,168,164,161,158,155,153,152,152,150,147,145,142,140,139,135,134,131,128,126,124,121,119,116,114,112,109,107,105,103,101,99,97,95,94,92,90,88,87,85,84,82,81,79,78,76,74,73,72,71,70,68,67,66,65,63,62,61,60,60,58,57,57,55,54,54,52,52,51,50,49,49,47,47,47,46,46,45,44,43,43,42,41,40,40,39,38,39,38,37,37,36,35,35,35,33,34,33,32,32,32,31,31,30,30,29,29,29,29,28,28,27,27,26,27,26,25,25,25,25,25,24,24,24,24,23,23,23,23,23,22,22,21,21,21,21,21,21,20,20,19,19,20,20,19,20,19,19,19,18,18,18,17,17,17,17,17,17,17,17,17,16,16,16,16,16,17,16,16,16,15,16,15,15,15,15,16,15,14,15,15,15,15,15,14,15,13,15,14,14,14,14,14,14,13,13,14,13,13,14,14,13,13,13,13,13,13,13,13,13,12,12,13,12,13,12,13,13,13,13,12,12,13,12,12,12,12,12,12,12,12,12,12,12,12,12,12,12,12,12,12,12,12,12,12,11,12,12,11,12,11,12,11,11,12,12,11,11,11,11,11,11,12,12,11,11,11,11,12,11,11,11,11,12,11,11,11,11,11,11,11,12,11,11,11,11,11,11,11,12,12,12,11,11,11,11,12,11,11,11,11,10,11,11,11,11,12,11,11,11,11,11,11,11,11,11,11,11,10,11,11,11,11,11,11,11,11,11,11,11,11,11,11,11,11,11,11,11,11,11,11,11,11,11,11,11,11,11,10,11,11,11,11,11,10,11,11,11,10,11,11,11,11,11,11,11,12,11,11,11,11,11,11,11,11,11,10,10,11,10,11,11,10,11,11,11,11,11,11,11,10,11,11,11,10,10,11,11,11,10,11,11,11,11,11,11,11,11,11,11,10,11,11,11,11,11,11,11,11,11,11,11,11,10,11,10,11,11,11,11,11,11,10,10,11,10,11,11,11,10,10,11,11,11,11,11,11,11,11,11,11,10,11,11,11,11,11,10,10,10,11,10,10,11,11,10,11,10,11,11,10,11,11,10,11,11,10,11,10,11,10,10,11,11,11,11,11,10,11,10,10,11,11,11,11,11,11,11,10,11,10,10,11,10,11,11,11,11,10,10,10,10,11,11,11,11,11,11,10,10,11,10,11,11,11,11,10,11,10,10,10,10,10,11,10,10,10,11,11,10,11,11,11,10,11,11,10,11,11,11,10,11,11,11,10,10,11,10,10,11,11,11,11,11,11,11,11,11,11,11,11
74,74,73,74,73,73,73,72,73,72,72,72,72,72,74,75,75,75,76,78,80,80,81,81,81,80,80,79,79,78,78,78,79,78,78,78,77,77,76,76,75,75,74,74,75,74,74,73,72,72,72,71,72,71,71,70,71,70,70,70,69,69,68,68,68,68,67,67,67,66,66,66,66,66,66,66,66,66,67,67,67,67,67,66,67,66,66,66,67,67,66,67,66,67,66,66,67,66,67,67,66,67,66,66,66,65,66,65,65,65,64,64,64,64,63,64,64,63,64,63,64,63,64,64,64,64,64,65,65,65,65,65,65,65,66,67,68,68,68,68,69,69,70,70,70,71,74,76,77,77,79,78,78,77,79,81,83,83,84,85,85,85,84,84,84,84,83,84,84,85,85,84,85,84,84,84,83,83,83,82,82,82,81,80,80,80,79,79,78,79,79,78,78,77,76,76,76,76,75,75,76,75,74,74,74,73,73,73,72,72,72,71,71,70,70,70,70,69,70,69,69,68,68,68,68,68,68,68,67,67,67,67,67,67,67,67,67,66,66,66,67,67,67,67,67,67,67,67,67,66,66,67,66,66,66,67,67,67,67,67,67,68,68,70,70,70,72,72,72,72,72,72,72,72,73,73,73,74,75,76,75,76,77,78,78,77,78,79,80,81,80,80,79,80,80,80,80,81,83,85,85,84,83,84,88,90,92,92,92,91,91,92,97,101,100,100,101,102,100,101,100,101,103,103,104,106,106,107,108,108,107,107,110,112,113,114,113,112,112,113,114,114,115,115,116,116,116,115,115,116,115,116,117,117,116,116,115,116,117,117,117,118,119,118,118,117,117,117,117,118,120,119,119,121,121,121,121,121,121,120,120,120,119,119,120,120,120,120,118,119,119,118,119,119,120,121,120,120,119,120,119,119,119,119,120,119,119,119,120,119,120,119,118,119,119,117,117,119,117,118,120,119,119,120,119,119,120,119,120,120,121,119,120,119,120,119,119,119,118,117,117,117,118,117,116,115,114,113,114,114,114,113,112,113,113,113,112,112,112,111,111,111,111,109,109,111,113,115,115,115,115,114,113,111,110,109,109,108,106,106,105,104,104,105,105,106,106,106,107,106,105,104,103,102,101,102,102,101,100,100,100,102,105,108,109,109,110,114,118,118,117,117,116,116,117,117,119,118,117,116,115,114,113,112,111,111,111,110,109,107,107,106,105,104,103,102,102,103,104,107,109,112,113,114,114,113,116,120,122,122,122,124,125,125,130,136,141,139,139,142,148,153,155,157,160,162,165,166,165,162,160,159,161,169,177,181,181,178,176,176,178,188,199,202,200,207,213,212,208,207,207,207,205,203,202,198,196,194,191,189,186,184,182,180,178,175,173,173,174,179,184,186,186,188,189,187,187,188,188,186,185,184,183,184,189,194,198,199,198,196,194,192,190,187,185,184,183,183,184,185,185,183,183,184,186,185,184,183,181,179,177,177,178,177,175,174,175,176,176,174,177,181,186,189,191,194,195,197,196,194,192,191,191,192,192,192,191,190,189,189,191,194,195,193,190,187,186,185,184,181,181,181,180,179,178,176,175,176,175,174,175,175,174,173,172,171,170,170,170,169,168,168,166,165,164,162,160,159,159,158,158,158,158,157,157,156,155,155,154,153,152,151,150,149,148,147,148,147,145,143,142,141,140,140,139,139,139,139,139,139,139,138,138,137,136,136,136,137,137,136,135,134,134,133,132,132,131,131,130,129,128,127,128,127,127,126,126,126,125,125,124,124,123,123,123,122,121,120,119,118,116,116,115,115,114,114,113,113,112,112,110,110,108,108,107,106,105,105,103,102,102,102,102,101,101,100,100,99,99,98,98,98,97,98,97,97,96,95,95,95,94,94,94,93,93,92,91,92,91,90,90,89,88,88,88,87,86,86,86,85,84,84,83,82,82,82,81,81,80,80,79,79,78,78,78,78,77,76,76,76,75,76,74,74,74,74,73,74,72,72,72,72,72,72,72,71,71,71,70,70,70,70,69,69,69,68,68,68,68,68,67,67,67,66,66,66,65,66,65,65,65,65,65,65,65,65,64,64,64,65,64,64,64,64,63,64,63,63,63,62,62,62,62,62,62,62,61,61,61,61,61,60,60,61,60,60,60,60,60,60,59,60,60,60,60,60,60,60,59,60,59,60,60,59,59,59,59,60,60,60,60,60,59,60,59,59,59,59,59,59,59,59,59,59,60,60,60,60,60,81,81,81,81,81,81,81,81,81,81,81,81
10,11,11,11,12,11,11,11,11,11,10,11,11,11,11,11,10,11,11,11,11,10,11,11,11,11,11,11,11,11,11,11,11,10,11,11,11,11,11,10,10,11,11,10,10,11,10,10,11,11,11,11,10,11,10,11,10,11,11,11,10,11,11,11,11,11,11,10,10,10,11,11,10,11,10,11,10,10,10,10,11,10,10,10,10,10,10,11,11,10,11,11,11,10,10,10,10,10,10,11,11,10,11,11,11,11,11,11,10,11,11,10,10,11,11,11,11,11,10,10,11,11,11,11,11,11,11,11,11,10,11,10,11,11,12,11,11,10,11,11,10,10,10,10,10,10,11,10,10,10,11,11,10,11,11,11,10,10,11,11,11,11,11,10,11,11,11,10,11,10,11,11,11,11,11,11,11,11,11,11,12,12,12,12,13,13,12,12,13,15,17,17,19,20,19,21,25,29,32,33,41,44,43,43,44,45,45,46,47,48,50,50,54,61,61,63,72,86,105,111,116,121,123,132,133,140,148,153,155,156,154,150,148,147,145,147,154,164,177,183,185,194,191,188,190,196,200,197,198,201,211,223,237,244,248,247,245,242,237,234,231,226,224,222,217,221,226,224,223,221,225,234,239,254,260,258,257,254,250,250,254,257,254,256,262,265,265,275,279,277,284,285,292,292,295,304,307,302,312,321,336,337,330,333,336,342,336,342,341,337,349,360,356,353,356,357,364,368,387,394,395,390,384,376,369,361,353,351,347,347,349,347,342,336,330,325,318,313,313,307,301,296,293,299,294,293,290,285,279,274,275,279,280,282,295,292,297,298,293,287,281,277,275,272,269,263,257,252,246,242,238,233,228,224,220,217,215,214,213,211,206,201,198,195,195,194,192,189,187,184,181,181,179,177,176,176,176,172,169,168,166,165,162,159,157,154,150,150,149,152,150,153,151,149,146,145,143,142,140,138,135,132,130,127,125,122,119,118,115,114,119,119,119,117,115,113,112,112,111,110,108,106,105,103,101,100,98,97,95,93,91,90,87,86,85,83,82,80,79,78,77,75,75,74,72,71,70,69,67,66,65,64,63,62,61,60,59,58,57,56,55,54,53,53,52,52,51,50,50,49,48,48,46,46,45,45,44,43,43,43,43,43,42,42,42,41,40,39,39,39,38,37,36,36,35,35,35,34,34,33,33,32,31,31,31,31,30,30,29,29,29,29,29,29,28,28,28,27,27,27,26,26,26,26,26,26,25,26,25,25,24,24,24,24,24,23,24,23,22,22,23,22,22,22,22,22,22,22,21,21,20,21,20,19,19,20,19,19,19,19,19,18,18,18,18,18,17,18,18,17,17,17,17,17,17,16,17,17,16,16,16,16,16,15,16,16,15,15,16,15,15,15,15,14,15,14,15,15,14,14,14,14,14,14,14,14,13,14,14,13,14,13,13,13,13,13,13,13,14,13,13,13,13,13,13,12,13,13,13,13,13,12,13,12,12,13,13,12,12,12,12,12,12,12,12,12,12,12,12,12,12,12,12,12,12,12,12,12,11,12,12,11,11,11,12,11,12,13,11,11,12,12,11,12,12,12,11,12,12,12,12,11,12,11,11,12,12,12,11,11,11,11,12,11,11,11,11,11,12,11,11,11,11,11,11,11,11,12,11,12,11,11,11,11,11,11,11,12,11,11,11,11,11,11,11,11,12,10,11,12,11,11,11,12,11,11,11,12,11,11,11,11,10,11,11,11,11,11,11,11,11,11,11,11,11,11,11,11,11,11,11,11,11,11,11,11,11,11,11,11,11,11,11,11,11,12,12,11,11,11,12,11,11,11,11,11,10,11,11,11,11,11,11,10,11,11,11,11,11,11,11,10,11,11,10,11,11,11,11,11,11,11,11,11,11,11,10,11,11,11,11,11,11,11,11,11,11,11,11,11,11,11,11,11,11,11,11,10,11,11,11,11,11,11,11,11,11,11,11,11,11,11,11,11,11,11,11,11,11,11,11,11,11,11,11,11,11,11,11,11,10,11,11,11,11,11,11,11,11,11,10,10,10,11,11,11,11,10,10,11,11,11,11,11,11,11,11,11,11,11,10,11,11,11,11,11,11,11,11,11,11,11,11,11,11,11,11,11,11,11,11,11,11,11,11,11,10,11,11,11,11,11,11,11,11,11,11,11,11,11,11,11,11,11,11,11,11,11,11,11,11,11,11,11,11,11,11,11,11,11,11,11,10,10,11,11,10,26,26,26,25,26,26,26,26,27,27,27,27,26,27
81,81,81,80,80,80,80,80,80,80,79,80,79,80,81,81,82,84,84,84,83,83,83,83,83,83,82,83,83,82,82,81,81,81,81,80,80,79,79,79,78,78,78,77,78,78,79,80,79,80,79,80,79,78,78,78,78,78,77,77,77,76,76,76,75,75,74,74,74,74,73,73,72,72,72,72,71,71,72,71,72,72,73,73,73,71,72,72,72,72,71,72,73,74,75,74,75,75,75,77,79,81,81,81,82,82,83,84,84,84,84,84,85,86,86,86,87,88,89,90,90,91,90,90,90,90,90,89,88,88,88,88,88,86,86,86,85,88,90,91,91,94,101,101,101,104,111,116,117,117,117,118,117,117,116,116,116,118,121,123,122,122,121,120,120,119,118,118,117,117,115,115,115,115,114,113,112,112,110,109,109,107,106,105,104,102,102,101,100,100,99,98,97,97,96,96,96,95,95,94,93,93,93,93,91,91,90,90,89,91,91,91,90,90,89,89,89,90,89,88,87,87,87,87,86,85,85,84,85,85,84,83,83,82,81,81,81,80,81,81,81,80,80,80,80,81,80,81,81,82,81,81,81,81,82,82,82,82,82,83,84,84,84,86,89,90,90,89,89,88,87,89,89,89,88,88,88,89,88,90,90,90,90,90,89,89,90,94,94,95,96,96,97,97,96,96,97,100,101,100,99,100,100,103,107,106,106,105,105,108,108,108,110,109,111,110,111,111,111,112,115,116,116,116,117,116,117,117,118,118,118,120,119,119,118,119,119,120,119,121,120,119,122,123,122,122,123,123,123,122,122,123,123,122,122,124,124,123,124,124,124,124,125,124,123,125,125,124,124,125,125,124,124,124,124,125,125,125,124,124,124,124,124,124,124,123,124,123,123,122,123,122,122,121,121,122,121,121,120,119,119,119,119,119,118,118,117,118,118,117,117,117,117,117,117,115,117,117,117,116,117,116,116,115,114,114,114,114,114,112,113,113,112,112,110,110,110,109,109,110,111,113,112,114,115,115,115,114,113,111,111,109,108,107,107,105,105,106,108,111,113,113,114,113,112,111,111,110,110,110,109,109,109,109,108,108,108,107,106,106,104,104,105,108,111,116,119,119,122,126,130,130,131,133,132,131,131,130,128,128,132,134,134,137,142,144,142,141,140,138,139,138,139,138,136,134,133,133,131,129,128,127,126,125,125,125,124,123,124,126,127,127,125,126,128,130,131,129,128,128,127,126,124,124,123,123,122,120,119,118,119,117,116,118,121,128,136,140,141,141,140,144,151,157,160,163,163,168,179,184,184,182,182,185,188,189,189,188,187,188,192,193,193,191,192,191,188,187,186,186,186,185,184,180,179,178,176,174,173,174,172,177,183,189,194,196,194,192,192,190,187,187,188,189,190,189,188,188,188,187,184,184,184,184,185,186,185,184,183,181,179,177,176,175,173,171,169,167,169,172,173,172,171,168,166,164,163,162,161,162,162,162,161,161,161,162,162,162,161,160,160,161,161,162,162,162,161,161,160,160,159,158,157,159,159,162,167,171,170,170,168,167,166,163,162,160,159,158,156,155,156,157,158,158,158,157,157,157,155,154,153,152,150,149,149,149,148,148,147,147,146,145,144,143,142,142,141,140,139,139,138,137,138,138,139,138,136,135,134,134,133,133,132,133,133,132,131,131,129,128,127,126,126,124,123,122,121,120,120,120,118,118,117,117,116,116,115,115,113,114,113,111,111,110,109,109,108,107,106,105,104,104,104,103,103,103,102,101,100,100,99,97,97,96,97,95,95,94,93,94,93,92,92,93,92,92,91,91,90,89,89,89,88,87,86,86,86,86,86,86,86,86,86,86,86,86,85,85,85,84,83,83,83,82,81,81,81,80,80,80,79,79,79,79,78,78,78,78,76,76,76,76,76,75,75,74,74,74,73,73,73,72,72,71,71,71,70,70,70,70,69,70,69,69,70,70,70,70,69,70,70,70,70,70,69,69,69,69,68,68,68,68,67,67,67,67,67,66,66,66,66,66,65,65,65,64,64,64,64,64,64,64,63,64,63,63,63,63,62,63,62,62,62,62,62,62,62,61,62,61,61,61,62,61,62,61,61,61,60,60,61,60,61,60,60,60,60,59,59,59,60,59,59,59,59,59,59,59,59,59,59,59,59,59,59,58,58,59,58,58,59,59,58,58,59,60,60,61,61,62,61,61,61,61,60,61,61,60,61,60,60,61,60,60,60,60,60,80,80,80,80,80,80,81,81,81,82,82,82,82,83
27,27,26,27,27,27,27,27,27,27,27,27,27,27,28,28,28,29,29,28,28,28,27,27,28,28,29,29,30,30,29,29,29,28,29,28,29,28,28,29,29,30,30,30,30,30,30,30,29,29,29,29,28,28,28,27,27,27,28,28,26,26,26,26,27,27,27,28,28,29,29,29,29,29,29,28,28,27,28,27,27,27,26,26,26,26,26,26,26,26,26,26,26,25,24,25,25,25,25,25,25,25,25,25,24,25,24,24,24,23,24,23,23,23,23,23,23,23,23,23,23,23,24,23,23,23,23,24,23,23,23,23,23,24,26,25,26,25,26,25,24,24,24,25,25,24,23,24,23,24,23,23,23,23,24,23,24,23,23,23,23,24,23,23,23,23,23,24,24,24,23,23,23,23,23,22,24,24,23,23,23,23,23,23,23,23,24,23,23,23,23,23,23,23,22,23,23,23,23,22,22,23,23,22,22,22,22,22,22,22,21,22,22,22,23,22,22,23,23,23,23,23,23,23,22,22,22,22,22,22,23,23,23,23,22,22,22,22,21,22,23,22,23,23,24,23,24,24,23,23,23,23,24,24,24,24,24,23,23,23,23,23,22,23,23,23,23,22,22,23,22,22,22,22,22,21,21,21,21,21,21,21,21,21,21,22,22,22,22,21,21,22,21,21,21,21,21,20,21,21,20,20,20,20,20,19,20,20,19,20,19,19,20,20,20,20,20,20,20,19,19,19,19,19,19,19,19,19,19,18,18,19,18,18,18,18,18,18,17,18,18,18,18,18,18,18,18,18,18,17,18,17,17,18,17,16,17,17,16,16,16,16,17,17,17,17,17,17,17,17,16,17,17,18,18,17,17,17,17,17,17,17,16,16,16,16,16,16,16,16,16,16,16,16,16,16,18,17,16,17,16,16,16,17,17,17,16,16,17,18,18,18,17,18,18,18,17,17,17,17,19,22,24,23,24,25,25,28,29,28,32,35,42,51,56,56,57,60,69,83,94,102,102,104,109,109,115,119,127,130,129,128,128,130,131,137,141,142,139,140,138,145,160,175,196,231,261,270,268,263,267,277,299,308,306,312,329,336,341,353,364,372,366,366,366,363,355,361,384,395,394,404,401,392,385,384,388,384,390,393,385,380,373,366,364,358,352,355,360,367,378,375,367,363,360,362,357,361,356,350,351,360,371,370,366,376,384,382,381,375,384,390,401,408,403,416,418,412,404,396,393,396,389,386,385,389,392,390,383,376,372,370,364,357,354,349,346,342,342,346,350,351,364,362,368,363,357,350,351,348,344,341,334,331,327,320,313,312,319,321,319,315,310,320,319,321,337,335,330,328,336,343,336,330,324,322,328,334,355,374,371,364,362,357,350,348,342,340,338,333,327,323,317,311,307,303,298,297,294,288,286,282,283,286,295,294,289,285,279,274,268,263,258,253,248,242,238,232,228,223,218,216,213,210,206,209,208,206,203,198,195,192,188,185,182,178,175,172,168,165,162,158,156,153,150,147,144,141,139,137,135,133,132,130,128,126,124,122,119,116,115,112,110,108,106,105,102,100,99,99,98,98,97,96,95,94,92,91,89,87,86,84,83,82,81,80,79,78,78,76,76,75,74,73,72,72,71,70,70,69,68,66,66,64,63,62,61,61,60,59,58,57,56,55,54,53,53,53,53,53,52,52,51,50,50,49,48,47,47,47,46,46,46,45,44,44,44,43,43,42,41,41,40,39,39,39,38,37,37,36,37,36,35,34,34,34,33,33,33,32,32,32,31,31,31,30,31,29,29,29,28,29,28,27,27,27,26,27,26,26,25,25,25,24,24,24,24,24,23,24,23,24,24,23,23,23,23,23,22,23,22,22,22,21,21,21,21,21,20,21,21,20,20,20,19,20,20,20,19,20,19,20,19,19,19,19,18,18,18,18,18,18,18,18,18,18,18,18,18,18,18,17,17,17,17,17,17,17,17,17,17,17,16,17,16,17,16,17,16,16,16,17,16,16,15,15,15,15,15,16,15,16,15,16,16,15,15,16,16,16,16,16,16,16,16,16,16,16,15,15,15,15,15,15,15,15,16,15,16,15,16,15,15,15,16,15,15,15,15,15,15,16,15,16,15,15,15,15,15,15,15,15,15,15,16,16,15,15,15,15,15,16,15,15,15,15,15,15,15,15,15,15,15,15,15,15,15,15,15,15,14,14,14,14,14,14,15,14,14,14,13,15,14,14,14,11,11,11,11,12,10,11,11,11,11,11,11,11,11,11,11
83,83,83,83,83,84,84,85,84,86,86,87,89,89,90,90,90,90,89,89,89,88,88,88,89,88,87,87,87,87,86,87,87,87,87,87,87,87,88,89,90,90,91,91,91,91,91,90,90,89,88,88,87,87,87,86,86,86,86,86,86,87,88,89,90,91,91,92,91,91,91,90,89,88,87,87,87,86,86,86,86,85,85,85,85,85,85,85,86,85,86,86,86,86,86,87,86,86,85,85,84,85,85,85,84,84,83,82,81,81,80,80,80,79,79,79,78,78,78,78,77,77,77,77,76,76,76,76,75,75,76,76,76,76,76,76,76,75,74,75,74,73,73,73,72,72,71,72,71,71,71,70,70,70,70,70,69,69,69,68,68,68,68,68,67,67,68,67,67,67,67,68,67,67,68,67,66,66,66,66,66,65,66,66,66,66,66,66,66,66,65,65,65,65,65,65,65,64,64,64,65,64,64,64,64,64,64,64,65,65,64,64,64,64,65,65,65,65,66,66,66,66,65,66,65,65,65,65,64,65,64,64,65,64,65,65,65,65,66,67,67,68,68,68,68,68,68,68,68,67,67,67,67,66,66,66,66,66,66,66,66,66,67,68,69,68,68,68,68,68,68,68,68,67,67,67,68,67,67,67,67,67,67,68,68,69,69,69,70,70,71,70,70,70,70,69,69,68,68,68,68,68,68,68,68,68,67,67,67,68,67,68,68,68,68,68,68,68,69,68,68,68,68,68,67,67,67,68,69,69,69,70,70,71,70,71,71,71,70,70,72,73,73,75,76,78,80,82,84,90,96,98,99,99,98,99,103,103,103,105,106,105,107,109,110,110,110,110,110,109,109,108,107,108,109,112,113,112,112,113,113,113,113,113,113,112,112,111,110,110,109,109,107,106,105,103,103,102,101,101,101,101,100,100,98,98,97,97,96,96,95,94,93,93,92,91,90,89,88,88,87,88,86,86,86,85,84,84,85,85,84,84,84,83,82,82,81,81,81,82,81,80,81,79,80,80,80,80,81,80,79,79,79,79,79,79,80,80,82,81,81,81,80,80,81,82,81,81,81,81,83,84,84,85,85,86,86,87,85,85,85,85,84,84,85,84,83,83,85,84,84,84,86,85,85,86,88,89,89,90,91,91,92,94,95,96,97,96,95,99,102,102,105,107,107,106,107,109,110,111,112,111,113,117,118,117,117,117,117,117,117,119,117,117,117,120,123,123,124,124,124,125,127,128,130,131,130,130,130,131,131,131,131,131,129,131,133,133,131,131,131,131,135,136,136,135,133,134,136,136,135,135,135,139,139,139,137,137,136,137,138,137,136,136,139,140,139,137,137,137,138,138,137,138,137,136,137,137,137,137,136,136,138,140,140,138,136,135,136,136,137,138,137,136,137,139,138,137,138,138,137,135,135,137,137,138,137,137,137,136,137,136,135,134,134,135,135,135,135,134,134,133,133,132,132,131,132,132,131,131,131,131,131,131,132,133,134,136,137,139,139,139,138,136,134,132,131,131,132,132,131,132,132,135,140,142,141,139,138,137,136,135,133,133,132,132,132,131,132,134,136,136,135,133,133,134,136,134,133,132,132,130,130,129,129,127,126,126,125,125,129,131,133,134,133,132,130,131,131,130,128,128,128,126,125,124,123,123,121,120,119,118,116,116,115,113,112,111,110,110,109,108,107,107,107,106,106,106,105,104,103,103,101,101,100,100,99,99,99,101,102,102,100,100,100,100,101,103,104,106,108,109,110,110,109,108,108,106,105,106,107,108,109,108,108,112,113,112,112,111,112,113,114,114,115,116,118,118,119,120,120,119,118,118,118,117,117,116,115,114,114,113,112,111,111,111,112,113,113,113,112,111,112,114,114,115,115,116,116,116,116,117,117,117,116,117,116,116,115,115,115,116,117,118,119,120,119,120,119,118,118,119,119,120,122,122,123,123,123,124,123,123,122,122,121,122,122,122,122,121,122,122,121,121,122,122,123,123,124,124,125,124,124,124,124,123,122,122,122,121,121,120,120,119,119,119,119,118,118,117,118,118,117,117,117,117,117,117,116,116,115,115,114,114,114,114,113,113,112,112,112,111,111,110,109,108,108,107,107,106,106,106,105,105,104,104,104,103,102,102,101,101,101,100,99,99,98,98,98,97,97,97,96,96,96,96,96,96,96,96,96,96,96,96,96,95,95,95,95,95,94,94,94,93,93,93,92,92,92,91,91,90,88,87,87,61,61,61,61,60,61,60,60,61,60,61,60,61,60,60,59
11,11,11,10,11,11,10,11,11,11,11,11,11,11,11,12,11,11,12,12,11,12,12,11,11,12,11,11,11,11,11,12,12,11,11,12,11,11,11,11,11,11,12,12,12,12,11,12,12,12,12,12,12,12,12,11,11,12,12,12,11,12,12,12,12,12,11,12,11,11,11,11,11,12,11,11,11,11,11,11,11,11,11,11,11,11,11,11,11,10,11,11,11,11,11,11,11,11,10,10,11,11,11,11,11,10,10,10,11,10,11,11,10,11,11,10,11,11,10,11,11,10,11,11,11,10,11,11,11,11,11,11,11,11,10,11,10,10,10,10,11,11,11,11,10,11,10,10,11,10,11,11,10,11,11,10,10,10,11,11,11,11,11,10,10,11,10,10,11,11,11,11,10,10,11,11,10,10,11,11,10,10,11,10,10,10,11,11,11,10,11,10,11,11,11,10,11,10,10,10,11,11,10,10,10,11,10,11,11,10,11,11,11,11,11,11,11,11,11,11,11,11,11,11,11,11,11,12,11,11,11,11,11,11,11,11,11,11,11,11,11,11,11,12,11,11,12,11,11,11,11,11,12,11,12,12,12,12,12,12,11,12,12,12,12,12,12,12,12,13,13,12,13,13,13,13,12,12,13,13,13,13,12,13,12,13,13,12,12,12,13,12,13,13,13,13,13,13,14,13,13,13,13,13,14,13,13,13,13,12,13,13,13,13,13,13,13,12,13,13,13,13,13,13,13,13,13,13,13,13,13,13,13,13,13,13,13,13,13,13,13,13,13,13,13,13,13,13,13,13,13,13,13,13,13,13,13,13,14,13,14,14,14,14,14,14,14,15,14,14,14,15,14,14,14,14,14,14,14,14,14,14,14,14,13,14,13,14,13,14,13,13,13,14,14,14,14,14,14,14,13,13,13,13,13,13,14,13,13,13,13,13,13,13,13,12,12,12,12,13,13,12,12,12,13,12,12,12,13,12,12,12,12,12,13,12,12,12,12,12,12,12,12,12,12,12,12,13,13,13,14,13,13,13,13,13,13,13,13,13,13,12,13,13,13,13,13,13,13,12,13,13,13,12,12,12,12,12,12,12,12,12,12,12,12,13,12,12,12,12,12,12,12,12,12,12,12,12,12,11,12,12,12,13,11,12,12,12,12,12,12,12,12,12,11,12,11,12,11,12,12,12,12,12,12,11,11,11,11,11,11,11,11,11,11,11,11,12,12,11,11,11,12,11,11,12,11,12,12,13,12,12,11,13,12,12,12,12,12,12,12,11,12,12,12,12,12,12,12,11,11,12,11,11,13,12,11,11,11,11,11,12,12,11,11,11,11,12,12,11,11,11,11,11,11,11,11,11,12,11,11,11,11,11,11,12,11,12,12,11,11,12,12,13,12,13,13,13,13,13,13,14,13,14,14,13,13,13,13,13,13,13,13,14,13,13,13,13,12,12,12,12,12,12,13,13,13,13,13,12,12,12,12,13,13,13,13,13,13,13,13,12,12,12,12,13,13,13,13,14,14,13,14,13,13,13,13,13,13,13,13,17,22,29,30,35,38,39,44,47,50,54,56,59,60,59,60,61,60,61,63,63,63,65,66,65,66,73,76,86,102,111,111,110,117,134,144,148,172,175,182,192,203,206,204,206,224,247,255,255,261,258,254,260,265,265,263,275,274,271,268,263,259,256,257,260,275,342,389,394,410,417,419,420,427,428,423,442,449,444,435,429,437,433,430,428,426,421,418,410,406,419,420,416,410,405,419,453,468,467,465,466,486,497,520,514,508,529,538,528,519,511,500,504,521,530,529,529,519,512,507,500,496,508,511,501,507,504,494,484,478,479,486,484,486,482,477,497,495,502,495,493,501,494,484,476,471,468,467,475,468,470,472,472,470,467,464,473,465,457,453,445,443,434,428,428,429,435,428,425,421,417,409,401,402,405,410,418,420,414,405,399,404,399,407,406,401,398,390,381,375,370,365,361,355,350,343,342,341,339,338,334,329,322,315,309,304,302,301,299,295,291,288,284,283,281,279,274,271,268,263,262,263,259,254,250,251,249,245,240,237,231,228,223,219,214,210,211,210,209,205,201,197,193,190,186,183,179,176,173,170,168,166,165,161,159,156,152,149,146,144,142,140,137,134,133,131,128,125,123,120,119,117,115,113,111,111,108,106,104,102,101,99,98,97,97,96,95,94,94,93,92,91,90,89,87,86,85,84,84,84,83,83,10,11,11,11,11,10,10,10,11,11,11,11,10,11,11,11,11,11
60,60,60,60,59,59,60,60,60,60,60,60,60,60,60,61,60,61,61,60,61,60,60,60,60,59,60,61,60,59,60,60,60,59,60,60,60,61,61,62,62,63,63,63,63,63,63,63,62,62,62,62,62,61,61,61,62,61,62,61,61,63,63,63,64,65,65,65,65,65,65,64,64,64,64,64,64,63,63,63,63,64,64,64,64,65,65,66,66,67,67,66,66,66,66,66,65,65,65,64,64,64,64,64,64,63,63,64,63,63,63,63,63,63,63,63,64,64,65,65,65,66,66,66,66,66,66,66,66,66,66,66,66,66,65,65,65,64,64,64,65,64,64,64,64,64,64,64,65,65,65,65,65,65,66,65,65,65,66,66,66,66,66,65,66,66,65,65,66,66,65,66,66,66,66,66,66,66,67,66,67,67,68,67,68,69,69,70,71,70,71,71,71,71,70,71,70,70,71,72,72,73,73,74,74,73,73,73,73,72,73,71,72,73,72,72,72,72,71,71,71,72,71,71,71,71,72,72,72,72,72,73,72,72,73,73,73,73,73,73,74,74,74,73,73,74,73,73,74,74,74,74,74,74,74,74,73,73,72,72,72,71,71,71,70,70,70,70,71,71,71,71,72,72,71,71,71,72,72,72,72,73,73,74,74,74,73,73,72,72,72,71,71,71,71,71,71,70,71,71,71,71,71,71,72,72,71,70,70,70,70,69,69,69,68,69,69,68,68,68,67,68,68,68,69,69,70,70,70,70,71,71,70,70,70,70,70,70,70,70,70,69,69,69,69,70,70,70,70,71,72,73,73,73,74,75,74,74,74,74,73,73,73,73,73,73,73,73,73,73,73,73,74,74,74,75,75,75,76,76,76,77,76,76,77,76,76,76,75,76,76,75,75,75,75,75,75,75,75,76,76,75,76,76,75,75,77,77,77,77,77,78,78,78,78,78,78,77,79,78,78,78,78,78,78,78,79,79,78,79,79,79,80,81,83,84,84,85,85,85,85,85,84,83,83,83,83,83,83,83,83,83,83,83,82,82,82,82,82,82,82,83,83,84,84,84,85,85,85,85,84,84,83,83,83,83,83,83,84,84,85,85,85,85,84,83,83,83,83,83,83,82,82,82,82,83,82,82,83,82,82,82,81,81,80,80,80,80,80,80,80,80,81,81,83,83,84,85,84,85,85,85,85,85,84,84,83,82,82,82,81,80,80,79,80,79,79,79,79,79,79,79,79,80,80,80,79,79,80,80,79,79,79,79,79,78,78,78,79,78,78,79,79,79,79,80,81,83,83,84,85,85,84,84,84,82,82,82,82,82,81,81,81,81,82,83,84,84,83,83,83,82,82,82,81,80,80,80,81,81,81,80,81,81,81,81,81,81,80,79,79,79,79,78,78,78,78,78,77,77,76,76,75,75,75,74,74,73,73,73,74,75,76,77,78,79,80,80,80,80,78,78,79,79,79,79,79,79,80,79,79,78,78,77,77,76,77,76,76,76,76,75,75,75,74,75,75,74,74,73,74,73,74,73,73,73,73,73,73,72,72,73,73,73,73,72,73,73,73,74,73,73,73,72,72,72,72,71,71,71,71,71,70,70,69,70,70,70,71,70,70,70,70,70,72,76,79,80,79,81,85,85,87,87,87,88,87,88,88,89,89,91,92,92,91,92,92,93,93,94,94,94,93,93,91,92,93,94,94,96,97,98,99,100,100,99,100,101,101,102,102,101,101,100,99,101,102,106,106,105,104,104,103,102,103,103,102,102,101,101,101,99,99,100,103,102,106,108,112,113,115,114,114,113,113,115,117,117,115,115,114,114,116,116,120,119,118,118,118,118,117,118,118,119,119,118,118,117,116,115,115,113,112,114,114,116,115,117,117,117,117,116,115,114,114,115,116,115,114,114,113,113,113,111,112,112,112,113,113,112,112,111,110,110,110,111,110,111,109,109,108,108,107,108,108,107,106,106,105,105,108,110,110,109,108,107,107,106,106,106,105,104,104,103,102,102,101,100,99,99,97,97,96,97,96,96,95,95,95,94,93,92,91,91,91,90,90,89,89,88,87,87,89,88,87,87,86,86,87,87,86,86,86,85,84,84,85,86,87,89,89,90,90,91,91,91,90,91,92,92,92,94,96,99,101,101,102,106,106,106,105,104,105,106,105,105,104,105,105,105,105,106,104,104,104,104,105,105,105,104,104,102,102,102,103,102,101,101,101,99,99,100,99,69,69,68,69,69,69,69,69,69,69,71,71,70,71,71,71,72,72
11,10,11,11,11,11,11,11,10,11,11,11,11,11,11,11,11,10,10,11,11,11,11,11,11,11,11,11,11,11,11,11,11,11,11,10,11,11,11,11,11,11,11,11,11,11,11,11,11,11,10,11,11,11,11,11,11,11,11,11,11,11,11,11,11,11,11,11,11,11,11,11,11,11,11,11,10,10,11,11,11,11,11,11,11,10,11,11,11,11,11,11,10,11,11,11,11,11,11,11,11,11,11,11,10,11,11,11,11,11,10,11,11,11,10,11,11,11,11,11,11,11,11,11,10,11,11,11,11,11,11,11,11,11,11,10,11,11,11,11,11,11,10,11,11,11,11,11,12,11,11,11,11,11,11,11,11,11,11,11,11,12,11,11,11,11,11,11,11,11,12,11,11,11,10,11,11,10,10,10,11,11,11,11,10,11,11,11,11,11,11,11,11,11,11,11,11,11,11,11,11,11,11,11,11,11,11,10,11,11,11,11,11,11,11,11,11,11,11,11,12,11,11,11,11,11,11,11,11,11,11,12,11,11,12,11,12,11,11,11,11,11,12,12,12,11,11,11,11,11,11,11,12,11,11,11,11,11,11,11,11,11,11,11,11,11,11,11,11,11,11,12,11,12,12,12,12,12,11,11,11,11,15,19,22,23,26,29,31,31,31,35,37,37,40,41,41,41,43,44,43,43,43,47,48,60,70,75,75,76,78,80,81,82,83,85,93,94,103,121,135,135,136,142,142,140,143,144,142,140,140,146,148,146,143,142,146,149,146,146,143,142,147,157,169,175,173,172,178,175,176,177,180,178,176,174,176,178,181,184,188,185,190,192,190,189,189,189,187,187,185,184,187,183,180,179,181,195,208,212,218,221,227,225,223,221,225,225,225,224,227,237,250,255,251,252,254,262,263,268,269,269,264,259,256,254,254,254,257,255,257,260,279,303,301,303,310,311,317,317,322,321,318,311,312,312,316,310,305,301,295,294,294,288,286,285,282,283,293,328,353,364,361,354,351,345,344,339,341,340,337,334,328,323,321,338,339,345,352,347,343,342,340,342,345,342,336,332,331,324,320,321,315,314,307,302,297,298,305,308,317,313,309,307,313,309,305,301,295,290,286,286,282,280,275,269,265,260,257,251,246,241,241,238,234,231,228,224,221,218,213,209,204,200,200,206,207,214,211,209,209,208,208,209,206,202,198,194,190,186,183,179,176,173,169,167,163,160,157,154,151,147,146,143,141,138,136,133,131,129,127,125,123,121,118,116,114,112,110,107,106,104,102,100,98,97,96,94,93,92,90,89,87,87,85,84,83,82,81,80,79,78,76,76,74,73,72,71,70,69,68,67,67,66,65,64,63,63,62,61,60,59,59,58,57,57,56,55,55,53,53,52,52,51,51,49,49,48,47,47,46,46,45,45,44,44,43,42,41,41,40,40,39,39,39,38,37,37,37,36,36,36,37,36,36,36,36,35,35,34,34,34,34,34,33,33,33,32,32,33,32,32,32,32,33,32,32,32,32,31,31,30,30,30,30,30,30,30,30,30,30,30,30,30,30,30,30,30,30,29,30,30,30,30,30,30,30,30,30,30,30,30,30,30,30,31,30,31,31,31,31,31,31,32,32,32,32,31,32,32,32,32,32,31,31,31,31,31,31,31,31,31,30,31,31,31,31,30,30,30,30,29,30,29,29,29,29,29,29,28,29,28,28,28,28,28,28,27,27,27,27,26,26,26,26,26,25,25,25,25,25,24,24,24,23,24,23,23,22,23,22,23,22,22,21,21,21,20,21,21,20,21,21,19,20,20,20,19,19,19,19,19,19,18,18,18,18,18,17,17,17,17,17,17,16,17,16,16,16,16,16,16,16,16,15,15,15,15,15,15,15,15,15,14,15,15,15,14,15,14,14,14,14,14,14,14,14,14,14,14,14,13,14,13,13,14,14,14,13,13,14,13,13,13,13,13,13,13,13,13,13,13,13,13,12,13,13,12,13,12,13,13,12,12,12,13,12,12,12,12,12,12,13,12,12,12,12,12,12,12,12,12,12,12,12,12,12,12,12,12,12,12,12,12,12,12,12,12,12,12,12,12,12,11,12,12,12,12,12,12,12,12,12,12,12,12,12,12,12,12,12,12,12,12,12,12,12,12,12,12,12,12,12,12,12,12,12,12,12,12,12,12,12,12,12,12,13,13,13,12,12,12,12,12,12,12,12,12,12,12,12,10,10,11,11,11,11,11,11,11,11,11,11,11,10,11,11,11,11,11,11
72,72,72,72,71,72,72,72,72,72,71,72,72,73,73,73,73,73,73,73,72,72,73,72,71,71,72,72,71,72,71,72,72,73,73,73,73,72,72,72,72,71,72,71,71,71,71,71,71,71,72,72,73,73,74,73,73,72,72,72,71,71,71,70,70,70,70,70,71,70,70,70,70,70,70,69,69,69,68,69,70,71,71,71,70,71,71,70,70,70,70,69,69,69,69,68,68,67,67,68,67,68,69,68,68,68,67,67,67,69,70,72,74,76,77,76,77,78,79,79,80,79,79,77,77,77,76,76,76,75,75,75,75,74,74,74,74,74,74,73,73,73,73,73,73,72,73,73,72,72,72,71,71,71,71,71,70,70,70,70,70,69,70,71,71,72,72,72,72,72,73,76,76,77,77,76,79,80,80,80,80,80,79,79,79,80,80,80,80,81,81,82,84,84,86,86,86,87,88,88,88,89,92,93,95,96,100,107,110,110,109,111,117,116,116,115,114,113,116,117,121,126,127,132,134,134,133,133,136,136,138,137,136,135,135,135,133,133,140,143,145,145,150,153,153,153,154,153,152,154,158,160,161,165,175,184,191,191,190,190,189,187,185,186,189,191,191,191,193,193,190,189,190,189,188,186,183,180,178,175,173,171,168,167,165,162,160,159,156,154,152,150,149,147,145,143,141,140,138,137,136,135,134,133,133,131,130,129,128,127,125,125,124,123,121,120,119,118,119,117,116,115,114,112,111,111,110,110,108,108,109,109,110,110,109,108,107,105,106,106,105,105,105,105,103,103,102,102,101,101,100,100,100,100,102,101,100,100,100,100,100,100,99,99,101,100,100,100,100,101,101,100,101,103,102,102,103,104,104,105,106,107,107,106,107,107,108,107,106,108,109,109,108,109,111,112,113,112,112,113,113,115,115,115,116,115,114,116,118,118,116,117,119,119,119,118,118,120,124,124,125,126,126,125,126,127,128,127,127,127,126,127,127,125,127,126,125,126,127,126,126,127,128,127,128,127,126,126,129,130,130,128,128,128,127,126,126,128,128,128,126,126,128,128,128,129,129,129,129,129,129,130,132,131,131,129,130,130,130,129,128,127,127,128,127,129,128,128,129,128,126,125,127,127,127,126,126,126,125,125,125,125,124,124,125,125,125,126,125,125,124,124,124,125,125,124,124,124,124,123,123,123,123,123,123,121,122,122,123,122,122,122,123,122,123,122,121,121,121,120,119,119,118,118,119,121,121,120,120,120,121,123,123,123,121,120,119,119,117,117,114,114,114,114,115,116,115,116,115,114,113,114,115,115,115,116,115,113,114,114,115,117,116,115,114,114,115,116,116,116,117,117,117,118,118,119,119,119,119,117,116,115,114,113,112,111,111,110,110,111,111,112,112,110,109,109,108,107,106,105,104,104,103,102,102,101,100,99,100,99,98,97,97,95,95,94,94,93,93,92,92,93,92,91,92,92,91,90,90,89,89,88,89,90,92,92,93,94,93,93,93,95,94,95,94,93,93,94,95,97,98,99,98,98,98,97,97,97,96,96,95,95,95,95,96,97,96,95,95,94,94,94,95,95,95,96,97,98,100,100,100,99,99,99,100,100,98,98,97,97,96,95,95,95,95,95,94,94,94,94,95,96,97,96,97,98,98,98,98,98,97,97,97,96,96,96,96,95,95,94,93,93,93,93,92,92,93,93,94,93,94,94,94,94,95,95,95,94,96,95,95,95,94,93,92,92,92,92,92,91,92,93,92,93,93,93,92,92,92,92,92,91,91,90,90,89,90,90,90,89,89,89,89,88,88,88,87,87,87,87,87,87,87,86,86,86,86,86,86,86,86,86,86,85,85,85,85,84,84,83,83,83,82,82,81,81,82,81,81,81,80,80,79,79,78,78,78,77,77,77,78,77,78,77,78,77,77,76,77,77,76,76,76,75,75,75,74,74,74,73,74,73,73,73,73,73,73,72,71,71,70,70,70,69,70,70,70,70,70,70,69,69,69,68,68,68,68,68,67,68,67,67,67,67,67,67,67,66,66,67,67,66,65,65,65,65,65,64,64,63,63,63,63,63,63,63,63,62,62,61,62,62,62,62,61,61,61,61,61,61,61,61,61,61,61,61,61,60,61,60,60,61,60,60,60,60,60,60,60,60,61,60,61,60,61,62,60,61,61,60,60,60,61,60,60,60,59,60,60,60,60,60,60,60,61,61,61,61,61,61,61,62,61,62,62,61,61,61,62,62,62,62,62,62,62,62,62,62,62,62,62
11,11,11,11,10,10,10,11,11,11,11,11,11,10,11,11,11,11,11,11,11,11,12,11,11,11,11,11,11,11,11,10,11,11,11,11,11,11,11,11,11,11,11,11,11,11,10,11,11,10,11,10,11,11,11,11,11,11,11,11,10,11,11,11,11,11,11,11,11,11,11,11,11,11,11,11,11,11,11,11,11,11,11,11,11,11,11,11,11,11,11,11,11,11,11,11,11,10,11,11,11,11,11,11,11,11,11,11,11,11,11,11,11,11,11,11,11,11,11,11,11,11,11,10,11,11,11,11,11,11,11,11,10,11,11,10,11,11,11,11,11,10,10,10,11,11,11,11,11,11,11,10,11,11,11,11,11,11,11,11,11,11,10,11,11,10,11,11,11,11,11,11,11,11,11,11,11,11,11,11,11,11,11,11,11,10,11,10,11,10,10,11,11,10,10,10,11,11,10,10,11,11,11,11,10,11,10,11,10,10,11,11,11,11,11,10,11,11,10,10,10,10,11,10,11,11,11,10,11,11,11,11,11,11,10,10,10,11,10,10,11,11,11,11,11,11,10,11,11,10,11,11,11,10,10,11,11,10,10,11,11,11,11,11,11,11,11,10,11,11,11,11,10,11,11,11,11,11,11,11,11,11,10,11,11,10,11,10,10,11,11,10,11,11,11,11,11,11,11,11,11,11,11,11,11,11,11,11,11,11,11,10,11,11,11,10,11,10,11,11,11,11,10,11,11,10,11,10,10,11,11,11,11,10,10,11,11,11,11,11,11,11,11,11,11,11,10,11,10,11,11,11,11,11,11,11,11,11,11,11,11,11,11,11,11,11,12,11,12,11,11,11,11,11,11,11,11,12,11,12,11,11,12,11,11,11,11,11,11,11,11,11,12,11,11,11,11,11,11,11,11,11,12,12,11,11,11,11,12,12,11,11,11,11,11,11,11,11,11,11,11,12,11,11,12,12,11,11,11,12,13,12,12,13,13,16,22,27,29,28,29,29,32,35,36,35,38,42,43,43,43,46,46,46,48,48,58,70,77,79,81,80,80,81,83,97,114,128,133,138,144,144,141,144,145,147,154,164,172,175,174,173,174,177,175,175,176,182,186,188,186,183,185,186,189,188,186,190,187,198,233,258,265,263,263,263,262,259,259,261,258,258,266,286,288,306,335,347,359,363,362,360,358,384,425,453,464,462,463,465,464,457,478,487,495,515,507,497,502,532,540,576,585,606,603,596,593,603,601,622,644,643,637,639,626,632,646,654,657,660,653,683,691,682,669,666,658,669,698,697,696,690,679,669,665,673,674,680,709,708,705,700,715,708,716,710,711,703,701,693,687,694,684,679,704,727,718,708,696,688,684,686,678,668,657,650,637,627,621,611,606,606,601,604,599,599,595,592,591,585,582,586,576,568,559,552,550,547,542,533,523,516,512,505,496,485,475,466,459,454,449,444,449,454,451,445,437,430,426,421,413,406,402,399,393,386,378,370,363,360,367,367,362,359,353,346,339,334,330,325,321,317,310,305,304,304,307,312,312,308,307,318,327,331,344,340,336,332,329,325,320,316,311,307,302,296,292,287,282,277,271,266,262,256,252,247,243,238,234,229,226,222,219,215,211,208,204,200,197,194,191,188,185,183,180,178,176,174,171,169,167,165,162,160,157,155,153,151,149,149,147,145,143,142,140,138,137,136,133,133,131,130,129,128,127,126,125,124,122,121,120,118,116,116,115,114,113,111,110,110,109,107,107,106,105,104,104,103,102,102,101,100,100,100,99,98,97,97,96,96,94,94,93,92,91,90,88,87,86,86,84,84,83,83,82,81,81,80,79,78,78,78,77,76,76,75,75,75,75,75,74,74,74,73,71,71,70,70,70,69,69,69,68,68,66,66,66,65,64,64,63,63,62,62,61,60,60,59,59,58,58,57,57,56,55,55,56,56,55,55,54,54,54,53,53,52,52,52,51,51,50,50,49,49,49,49,49,49,49,48,47,48,47,47,47,46,46,46,46,46,46,45,45,45,44,44,45,44,43,43,43,43,42,42,43,42,42,42,41,41,41,40,39,40,40,40,40,40,39,38,38,38,37,37,37,37,37,37,37,37,36,36,36,36,35,35,35,35,34,34,33,33,33,33,32,32,32,31,31,31,31,30,30,29,29,29,29,28,28,28,28,28,27,27,26,26,26,25,25,25,25,25,24,24,24,23,24,23,23,11,11,11,11,10,11,11,10,10,11,11,10,10,10,11,11,11,11,11,11,11,11
62,62,61,61,61,62,62,61,62,62,62,61,61,62,61,62,62,61,62,61,61,61,62,61,62,61,61,60,61,61,61,61,61,60,61,61,61,61,61,61,61,61,61,62,61,62,62,62,61,62,62,62,62,62,62,61,62,62,62,62,62,62,62,62,62,62,63,62,62,62,62,62,62,62,62,62,63,62,62,62,62,62,62,62,63,62,62,62,62,62,62,62,63,62,62,62,62,62,62,63,63,63,63,63,63,63,63,63,63,63,62,62,62,62,62,62,62,62,62,62,62,62,62,62,63,63,63,63,63,63,63,63,63,63,62,62,62,62,62,62,62,62,63,62,62,62,62,63,62,62,62,62,62,62,62,62,62,62,61,62,62,62,62,61,62,62,62,62,62,62,62,62,62,63,64,63,63,63,63,63,63,62,62,62,62,62,62,62,62,62,61,61,62,61,61,61,61,61,61,60,60,61,61,61,61,60,60,61,61,60,60,61,60,60,61,61,61,61,60,60,60,60,60,60,60,60,60,60,60,60,60,60,60,60,59,61,60,60,60,60,60,60,61,60,61,61,60,60,59,60,60,59,60,60,59,60,60,60,60,59,60,59,59,60,60,59,59,60,60,60,61,61,61,61,60,60,61,62,65,69,72,75,75,75,78,81,81,83,84,84,84,83,83,83,82,82,82,82,82,81,81,81,80,81,82,82,82,83,83,84,83,83,85,86,85,85,85,84,85,84,83,82,82,81,81,82,83,86,86,86,88,90,91,91,91,91,91,90,90,91,91,93,94,94,96,101,105,115,122,126,127,133,139,139,139,140,139,143,146,146,147,148,150,154,154,156,158,157,156,157,155,155,154,155,156,157,156,155,156,153,152,151,151,151,155,158,158,160,159,157,160,163,169,173,173,174,177,177,177,178,177,175,175,173,172,173,171,171,172,173,171,171,172,174,172,170,169,167,165,164,161,159,159,156,154,153,151,149,147,145,143,142,140,138,137,135,133,131,131,129,128,127,126,125,124,123,121,120,119,117,116,114,114,113,113,112,111,110,109,108,107,106,105,105,105,104,105,104,103,102,102,101,100,100,99,98,98,98,98,97,97,96,96,94,94,95,94,93,93,93,92,91,91,90,90,90,90,91,91,92,92,91,91,90,90,90,91,91,92,91,91,90,89,89,90,92,93,93,94,98,97,97,97,96,98,99,103,107,108,107,107,107,106,105,107,107,107,107,108,111,115,117,116,117,117,118,119,119,121,121,126,131,131,131,130,130,129,130,130,129,128,127,131,135,134,134,134,134,134,135,137,137,138,137,136,137,138,137,136,135,134,134,136,134,135,136,136,135,135,133,133,135,134,133,134,136,135,135,133,133,134,133,135,137,137,137,136,135,136,135,136,135,133,133,132,133,134,132,131,131,132,132,135,134,133,132,134,136,136,137,137,136,137,137,137,137,137,137,137,136,136,134,134,134,135,136,135,135,135,134,134,133,132,132,132,131,131,131,129,129,128,129,129,128,128,128,128,127,126,125,126,127,126,125,124,125,124,124,124,125,124,124,124,122,122,123,122,120,120,121,121,123,124,124,125,124,124,124,124,123,122,121,119,118,117,117,118,118,118,119,118,118,119,119,118,116,116,115,114,112,112,110,110,111,111,112,113,114,115,115,115,115,114,113,111,110,109,108,108,106,105,104,105,102,102,102,103,103,103,102,101,100,100,99,98,100,103,101,101,100,100,99,98,98,97,96,95,95,94,94,93,93,93,94,95,96,98,99,98,98,97,98,98,100,104,106,107,108,106,106,108,111,113,116,116,116,115,113,113,112,112,113,115,116,117,117,116,115,113,113,111,110,109,108,108,107,107,106,105,105,105,105,105,105,105,107,107,107,107,106,105,105,106,107,108,109,108,107,106,105,105,104,105,105,104,105,104,103,103,102,102,103,108,112,114,115,113,113,111,111,111,112,112,111,110,109,109,108,109,112,112,111,111,111,111,110,110,110,111,112,113,113,113,112,112,111,111,111,110,109,109,108,108,109,110,111,112,113,114,115,114,114,114,113,112,112,112,112,112,112,111,110,110,109,109,109,109,110,110,111,111,110,110,110,110,110,110,111,111,112,112,112,112,113,113,113,113,112,112,113,113,113,112,112,111,111,112,111,111,110,110,110,109,109,109,109,109,109,108,108,108,108,108,108,108,107,106,107,106,105,105,105,105,104,104,104,104,103,102,61,61,61,61,61,62,62,62,62,62,62,61,62,62,62,61,61,62,62,61,61,61
11,11,11,11,10,11,11,10,10,11,10,11,11,11,11,11,10,11,10,11,11,10,11,11,11,10,11,11,10,11,11,11,11,11,11,11,11,11,11,10,11,11,11,11,11,11,11,11,11,11,11,10,12,11,11,11,11,11,11,11,11,11,11,11,11,11,11,11,11,11,11,11,11,11,11,11,11,11,10,11,11,11,11,11,11,11,11,11,11,11,12,11,11,11,11,11,10,11,11,11,11,11,11,10,11,11,11,11,11,11,11,11,11,11,10,11,11,11,11,11,11,11,11,11,11,11,11,11,11,11,11,11,11,11,12,11,11,11,11,11,11,11,11,11,11,11,11,11,11,11,11,11,11,11,11,11,11,11,11,11,11,11,11,11,12,16,17,19,20,24,24,23,23,23,22,23,23,24,29,36,41,42,55,66,69,73,87,101,109,111,111,111,111,113,113,119,122,126,124,123,132,134,141,154,168,178,182,187,188,189,189,188,188,190,190,188,185,182,179,176,176,180,182,182,187,187,196,198,196,195,192,190,189,195,209,211,212,214,236,262,267,279,288,288,287,283,283,282,282,278,280,279,276,272,271,272,287,290,293,301,332,348,343,347,365,372,368,375,388,399,416,419,415,420,444,468,474,489,480,472,468,468,473,480,488,492,486,477,472,489,499,495,511,508,500,489,484,481,482,474,479,508,516,523,518,522,518,510,515,538,543,540,532,523,513,505,497,491,501,508,509,511,523,522,528,522,514,512,511,511,504,504,497,492,496,498,497,496,495,491,493,487,487,488,490,493,493,488,481,477,474,473,468,464,456,450,442,437,429,420,411,405,398,390,382,374,366,358,351,344,336,329,324,318,311,305,299,292,286,280,274,269,264,258,253,247,242,238,233,231,226,222,217,212,208,204,200,196,192,189,186,185,183,180,178,178,175,172,169,166,164,162,159,157,154,152,150,148,147,145,142,140,139,137,135,134,133,132,130,129,127,126,125,124,123,123,122,122,121,120,119,117,116,115,113,112,111,110,110,109,107,106,106,104,104,103,103,102,101,100,100,99,99,98,97,96,95,95,94,94,93,92,91,91,90,89,89,88,87,86,86,86,85,84,84,83,83,83,82,81,81,80,80,80,79,79,79,79,78,78,77,77,76,76,75,75,74,74,74,74,74,74,74,73,73,73,73,72,72,72,71,71,71,70,70,70,69,69,69,69,68,68,68,68,67,67,67,66,66,66,65,64,64,65,64,64,64,65,64,64,63,63,63,62,62,62,61,62,61,61,61,61,61,61,61,61,61,60,61,60,59,59,60,59,59,58,59,59,59,60,59,59,58,58,58,57,57,57,56,57,56,56,55,56,55,55,55,55,55,55,54,54,54,53,53,53,53,53,52,52,52,51,51,51,51,50,51,50,50,50,50,49,50,49,49,48,48,47,47,46,45,45,45,45,44,44,44,43,42,43,42,42,41,41,41,41,40,41,40,39,39,38,38,37,37,37,36,35,36,35,35,35,35,34,33,34,33,33,32,32,32,32,32,31,31,31,31,31,31,30,30,30,29,29,28,29,28,27,28,28,27,27,27,27,26,27,26,26,26,26,26,26,26,27,26,26,26,25,25,25,25,25,25,25,25,24,24,24,23,24,24,23,23,23,23,23,22,22,22,22,22,21,22,21,21,21,22,21,21,21,21,21,22,21,22,22,21,21,21,21,20,20,20,21,20,20,20,20,20,20,20,20,19,20,20,20,19,19,19,19,18,19,19,19,19,18,18,19,18,19,18,18,18,18,18,17,17,17,17,17,17,17,17,18,17,18,17,18,17,17,17,18,17,17,17,17,17,17,17,17,16,16,16,17,16,16,16,16,16,16,17,16,16,16,16,16,16,16,16,16,16,15,15,16,15,15,15,15,15,15,15,15,15,15,15,14,15,15,15,15,15,14,15,15,15,15,15,14,14,14,14,15,14,14,14,14,14,14,14,14,14,13,14,14,13,14,14,14,13,13,13,13,13,13,13,13,13,13,13,13,13,13,13,13,13,13,12,12,13,12,12,13,12,12,12,12,12,12,13,13,12,13,12,12,12,11,12,12,12,12,12,13,12,12,12,12,12,12,12,12,12,12,11,12,12,12,12,11,12,11,12,12,12,11,11,11,12,12,11,12,11,12,12,12,12,11,11,12,11,11,11,11,11,11,12,11,11,12,11,11,11,11,12,11,11,11,11,35,35,35,36,36,35,34,34,34,33,33,32,32,31,31,31,31,30,30,29,29,28,29,27
61,61,61,61,61,61,61,60,61,62,62,62,61,61,61,61,61,61,60,61,60,60,60,60,61,60,60,60,60,60,61,62,61,62,62,61,62,61,61,61,61,61,61,61,61,61,60,60,60,60,61,60,60,60,61,60,60,60,60,60,60,60,60,59,60,59,59,59,59,59,58,58,58,59,58,58,59,59,58,58,58,59,58,58,58,58,58,58,58,58,58,58,58,58,58,57,58,57,57,57,57,58,57,57,57,57,57,56,57,57,57,57,57,57,57,56,56,57,56,57,57,57,56,57,56,57,57,57,57,57,57,57,57,57,57,57,57,57,57,57,57,57,57,57,57,57,57,57,57,57,57,57,57,57,57,56,56,57,57,57,57,56,57,57,58,58,57,57,57,57,57,57,57,57,57,57,57,58,59,59,58,58,59,58,58,58,59,60,62,63,64,64,65,64,64,64,64,64,64,65,65,66,66,66,66,68,69,69,71,71,70,70,70,71,71,71,72,73,73,73,73,73,74,74,75,74,74,74,74,74,75,74,74,74,75,74,73,74,74,73,75,74,77,79,78,79,78,79,78,78,77,79,79,79,79,80,80,82,85,85,85,85,85,87,86,87,88,89,90,89,90,92,92,93,94,94,95,97,97,98,98,99,99,102,105,105,105,106,108,108,109,110,114,115,115,114,113,112,115,113,112,112,111,112,112,112,114,115,113,113,113,112,114,113,113,113,113,114,114,113,113,113,112,112,112,111,112,113,112,111,110,110,110,110,110,110,109,109,107,107,107,107,108,110,110,109,109,108,106,107,106,107,107,107,106,106,105,106,108,108,108,108,107,106,107,107,107,107,108,106,106,106,106,107,107,106,107,107,108,108,108,108,109,109,110,110,110,110,109,108,108,107,106,106,105,105,105,105,105,105,106,105,106,107,108,109,108,108,108,108,107,106,106,107,107,106,106,105,106,104,105,102,103,101,101,100,100,98,98,97,97,96,97,97,97,98,98,100,101,101,102,100,99,99,98,97,96,95,95,94,93,94,93,93,92,93,92,91,91,91,91,91,91,90,90,89,88,88,87,88,87,87,86,85,85,84,84,84,84,83,83,83,84,83,83,82,82,82,81,82,81,80,79,79,79,78,78,77,77,77,77,77,77,77,76,76,76,75,74,73,74,74,73,74,72,72,71,72,71,72,71,72,71,72,71,71,71,70,71,71,70,70,70,71,71,71,71,71,70,71,70,70,70,69,69,69,69,68,69,69,69,70,70,70,71,71,71,72,71,72,71,70,70,70,70,69,69,70,70,70,71,71,70,70,70,71,71,71,71,71,72,72,73,73,74,74,74,74,74,75,75,75,75,75,74,74,74,74,74,75,74,75,76,77,78,78,78,79,79,80,80,81,81,80,80,80,79,79,79,79,78,78,78,79,80,81,81,81,81,82,82,82,82,82,82,82,82,82,82,82,82,82,82,82,81,82,82,81,81,82,82,82,83,83,83,83,83,83,83,84,83,83,82,82,83,82,82,82,81,81,81,81,80,80,79,79,79,78,79,78,79,79,79,80,79,79,79,79,79,79,79,79,79,79,79,79,79,79,79,79,78,78,77,77,77,77,77,77,77,77,76,76,77,77,77,77,77,77,76,77,77,77,77,77,76,77,76,76,76,76,76,76,75,75,74,73,74,73,73,73,72,72,72,73,72,72,73,73,74,74,74,74,74,74,74,75,74,74,74,73,74,74,73,73,73,73,72,73,72,72,72,72,72,72,72,71,71,71,71,71,70,70,70,70,71,70,70,70,70,69,69,69,69,69,68,68,67,68,68,68,68,68,68,69,68,69,68,68,68,67,68,67,67,67,67,67,66,66,66,65,66,65,65,64,65,64,65,64,64,65,65,65,66,66,65,65,65,65,65,65,65,65,64,64,64,64,64,64,63,63,63,63,63,63,63,63,63,63,63,63,63,62,62,63,62,62,62,62,62,62,62,61,61,61,61,62,61,61,61,61,61,61,61,60,61,60,60,60,60,60,60,59,60,61,61,61,61,61,61,62,61,62,61,61,61,61,61,61,61,61,61,60,61,61,61,61,61,61,61,61,61,60,61,61,60,60,60,60,60,60,60,60,59,59,59,60,59,59,59,59,59,59,59,59,59,59,59,60,60,59,59,59,59,59,59,59,59,59,58,59,58,59,58,59,60,59,59,59,59,60,59,60,59,60,59,59,60,58,58,58,58,57,57,57,58,58,58,58,58,57,57,57,57,58,58,58,57,57,57,57,57
27,27,27,26,26,26,26,25,25,25,25,24,24,23,23,23,23,22,22,22,22,22,21,21,21,24,26,27,27,30,31,31,31,30,30,31,30,29,29,28,28,28,28,28,27,28,28,27,27,26,26,26,26,25,25,25,24,24,24,24,24,24,24,23,23,22,22,22,22,22,21,21,21,21,20,20,20,20,19,19,19,19,19,19,18,19,18,18,18,18,17,17,17,17,17,17,17,17,16,16,17,16,16,16,16,16,16,15,15,15,16,15,15,15,15,15,15,15,15,15,15,15,15,15,15,15,15,15,15,15,17,19,20,21,24,25,26,26,26,25,25,24,24,24,24,24,23,23,23,22,24,27,28,28,30,31,31,31,31,31,30,30,30,30,29,28,28,32,37,42,43,46,50,50,52,53,53,52,52,52,54,57,57,57,62,65,67,67,65,65,65,66,73,77,77,79,83,90,97,97,97,96,96,98,98,98,104,105,105,103,101,101,100,103,113,114,119,124,126,126,127,133,136,134,134,133,131,130,135,138,141,142,142,144,150,152,154,155,152,151,153,151,153,153,161,174,176,198,222,225,234,232,230,233,256,267,275,293,294,291,286,284,285,280,291,287,295,297,296,294,300,313,312,309,317,318,330,332,332,336,338,359,373,383,400,409,400,400,398,415,430,427,423,420,416,409,417,423,440,472,470,462,458,452,445,436,428,434,432,435,438,439,438,448,476,499,521,531,523,523,515,507,504,519,572,584,601,590,580,571,562,562,581,587,614,602,600,600,599,598,602,603,594,583,572,562,575,581,588,589,589,580,571,564,554,543,548,541,548,559,571,562,556,550,540,530,533,530,529,524,520,513,517,528,519,509,509,503,518,512,511,510,512,517,511,505,499,489,487,479,481,476,480,481,482,475,474,477,479,475,468,464,459,456,447,438,431,422,413,411,405,397,390,384,376,370,362,355,347,341,337,332,325,318,312,305,298,292,288,282,280,274,269,263,258,253,249,246,243,241,240,238,234,230,228,227,225,222,220,219,215,212,208,204,200,197,194,191,188,185,182,178,176,173,171,171,170,169,166,164,162,161,159,157,155,154,152,151,149,147,145,144,142,141,140,138,137,135,133,132,131,130,129,128,128,127,127,126,125,125,123,122,122,121,120,120,120,119,118,117,117,116,114,114,113,112,111,110,110,108,107,107,106,106,105,104,103,102,101,100,99,98,97,97,95,95,95,94,93,92,91,91,90,89,89,88,88,87,86,86,85,85,84,84,83,82,81,81,80,79,78,77,77,76,76,75,75,74,73,72,72,71,71,71,70,70,69,69,69,68,68,68,67,66,66,65,66,65,65,64,64,64,64,65,63,63,63,62,61,61,60,60,59,58,58,58,57,57,56,55,55,55,54,54,55,54,54,53,53,53,52,52,52,52,51,51,51,51,51,50,50,49,49,49,48,48,49,48,47,47,47,47,48,47,47,47,48,47,48,47,47,46,46,46,46,45,45,44,44,43,43,43,43,43,43,42,43,42,42,42,42,42,41,42,41,41,41,40,39,40,40,41,39,40,39,39,39,39,40,40,40,39,39,39,39,40,39,39,39,39,38,39,39,39,39,39,39,39,39,39,39,39,39,39,39,38,37,38,37,38,37,37,37,37,37,37,37,36,36,36,36,36,35,35,35,35,35,35,35,34,33,34,33,32,32,31,31,31,30,31,30,30,30,29,29,29,28,28,28,28,28,27,28,27,27,26,26,26,27,26,26,25,25,25,25,24,24,24,23,24,24,23,23,23,22,22,22,22,22,22,21,21,21,20,21,21,21,20,20,20,20,20,19,19,20,20,19,20,19,19,19,19,19,18,18,19,18,18,18,18,17,17,17,17,17,16,16,16,16,16,16,16,16,16,16,16,16,16,15,16,15,15,15,15,15,16,15,15,14,15,15,15,15,15,14,15,14,15,15,15,15,14,15,14,14,14,14,14,14,14,14,13,14,14,14,14,13,13,13,13,14,13,13,13,14,13,13,13,13,13,13,13,13,13,13,13,13,13,13,12,12,13,13,12,13,12,12,12,13,13,12,12,12,12,12,12,12,12,12,12,12,12,12,12,12,11,13,12,12,11,13,12,12,12,12,12,12,12,11,12,12,11,12,12,12,12,11,12,12,12,11,11,12,12,12,12,11,12,12,12,11,12,11,11,11,11,12,11,11,11,12,11,11,11,12,10,11,10,10,10,11,10,10,11,10,11,11,11,11,11,10,10,10,11,11,10,10,10,11,11,11
57,57,57,57,58,58,58,58,58,58,58,58,58,57,58,58,58,57,57,57,57,58,58,57,57,57,57,58,57,58,58,58,58,58,58,58,58,57,58,58,58,58,57,57,57,58,58,58,58,57,58,58,58,58,58,57,58,58,58,58,58,58,58,58,57,58,58,58,57,57,58,57,57,58,57,58,58,58,58,57,57,58,57,57,57,57,57,57,57,56,57,57,57,57,57,57,57,57,57,56,57,57,56,57,56,57,56,56,56,56,56,57,56,57,56,56,56,56,56,56,56,56,56,56,56,56,56,56,56,56,56,56,56,56,56,56,56,56,56,55,55,56,56,56,56,55,56,56,56,56,56,55,56,56,56,56,56,56,56,56,56,56,56,56,55,56,56,56,56,55,56,56,56,55,55,55,55,56,56,55,56,56,55,55,56,55,56,55,55,55,55,56,55,55,55,55,55,55,56,56,56,55,55,56,55,55,55,56,55,55,55,56,56,56,56,56,56,56,56,57,56,56,58,57,58,58,58,58,57,58,59,58,59,59,59,58,59,59,60,61,61,60,60,60,60,60,61,61,62,61,62,62,62,62,62,63,63,63,63,64,65,66,66,66,66,67,68,71,71,71,72,72,72,72,72,74,75,76,76,75,76,75,77,77,78,78,81,81,82,87,88,90,91,91,92,93,92,93,94,95,99,102,102,101,100,100,99,99,98,100,100,99,99,103,104,111,112,111,110,109,109,109,108,112,114,113,114,117,120,119,120,119,118,119,121,120,120,120,118,118,117,116,116,115,114,114,113,115,114,113,116,117,117,118,118,118,117,116,116,115,116,117,117,116,114,114,113,115,114,114,113,113,112,111,112,113,113,112,115,116,118,117,116,116,115,115,117,117,117,116,116,116,116,115,116,115,115,116,114,113,114,114,116,117,115,115,115,113,113,114,112,112,112,112,112,111,111,110,110,110,110,111,110,110,109,109,108,107,108,107,107,107,107,107,107,107,106,108,107,106,106,105,104,103,103,103,103,102,101,100,100,101,101,100,101,101,101,101,101,99,99,98,97,96,95,94,94,93,92,93,95,95,96,96,96,96,97,97,97,96,95,95,94,93,92,91,91,90,90,89,89,90,90,91,91,91,91,91,90,90,89,90,90,90,90,90,90,89,88,87,88,88,88,87,86,86,86,86,85,85,86,86,87,87,87,86,85,85,85,85,86,85,85,85,85,84,83,83,82,81,81,80,80,80,80,81,81,80,80,80,80,80,80,81,80,80,79,79,78,78,77,76,76,76,75,75,75,75,75,75,75,75,74,74,73,73,73,72,72,71,71,71,71,71,70,70,69,69,69,69,68,69,69,68,68,68,69,69,70,71,71,72,71,72,73,72,72,72,73,73,73,72,72,72,72,72,72,72,73,72,72,73,72,72,72,72,71,72,72,73,72,73,74,73,73,74,75,73,73,73,73,73,72,72,71,71,70,71,72,71,71,71,71,71,72,73,74,77,78,79,80,80,81,81,81,81,81,80,80,81,81,82,83,83,83,83,84,84,84,84,85,84,85,85,86,86,86,87,87,87,87,88,88,88,88,88,88,88,87,87,87,87,86,87,87,87,87,87,87,86,87,88,88,87,88,88,88,88,89,89,89,90,89,89,89,89,89,89,89,89,88,87,87,86,86,86,86,86,86,87,88,88,88,87,87,88,88,88,88,88,88,89,88,88,88,88,87,87,86,86,86,86,86,86,85,85,85,85,85,86,85,84,85,85,84,84,84,84,83,82,82,82,82,81,81,81,81,80,81,80,81,81,80,80,80,81,80,81,80,80,80,79,79,79,78,78,77,77,76,76,77,76,76,77,77,77,78,77,77,77,77,77,77,77,76,77,76,76,76,75,75,75,75,74,74,74,74,74,74,73,73,73,73,73,73,73,73,73,72,73,72,72,72,72,71,71,71,71,71,71,70,70,70,70,70,70,69,70,69,69,68,69,69,68,69,69,68,68,68,68,69,68,68,67,67,67,66,66,66,66,66,65,65,65,66,65,65,65,65,65,65,65,64,64,65,64,65,65,65,64,64,64,64,64,64,64,63,63,63,63,63,63,63,63,63,62,62,62,62,62,62,62,62,62,61,61,61,62,61,61,61,61,60,61,61,60,60,59,60,60,60,60,59,59,59,59,60,59,60,59,60,59,59,60,60,59,60,59,60,60,60,59,59,59,59,63,62,63,62,62,62,62,62,62,61,62,62,62,62,62,62,63,62,61,62,62,62,61,61,61,62
11,11,11,11,10,11,10,11,11,10,11,10,10,10,10,11,11,11,10,10,10,11,10,10,10,11,11,10,10,10,11,11,11,11,11,11,11,11,11,11,12,11,11,11,11,11,11,11,11,11,11,11,11,11,10,11,11,11,11,11,11,11,11,11,11,11,11,11,11,11,11,11,11,11,11,10,11,11,11,10,11,11,11,11,11,11,11,11,11,11,11,11,11,11,11,11,11,11,10,11,11,11,11,11,10,11,11,11,11,10,10,10,11,11,11,10,11,11,11,10,11,11,11,11,11,11,11,11,11,11,10,10,11,10,10,11,11,11,11,11,11,11,11,11,11,11,11,11,11,11,11,11,11,11,11,11,11,10,10,11,11,11,11,11,11,12,12,13,19,25,29,30,33,37,38,38,38,38,37,39,39,43,47,51,53,60,65,67,68,69,69,71,73,73,72,70,73,79,90,99,102,111,121,124,126,123,122,119,118,116,115,114,113,116,119,117,115,117,116,114,117,122,126,125,127,128,127,127,130,129,128,131,141,147,150,149,149,158,168,179,179,178,183,191,190,188,186,186,192,190,187,183,181,178,176,177,174,173,174,171,172,172,172,170,169,178,179,179,189,213,224,224,234,233,231,239,241,238,243,244,241,243,241,243,250,270,306,322,322,330,328,325,329,328,336,349,348,345,344,340,337,331,327,328,343,364,372,380,388,388,390,393,400,401,394,402,408,435,431,442,465,466,466,463,458,465,477,479,489,480,476,510,514,530,533,542,539,536,530,522,530,534,536,534,546,543,541,552,567,559,551,555,550,540,535,540,537,542,533,528,529,525,553,566,565,564,555,547,544,533,526,519,509,508,510,500,502,496,487,479,472,466,460,452,447,441,439,437,436,434,428,423,416,409,404,397,388,380,373,370,368,364,359,357,357,350,342,338,331,326,320,313,308,301,295,291,293,293,293,288,283,277,273,270,265,260,258,256,258,255,252,253,252,253,249,246,241,241,237,232,227,224,223,220,218,215,216,214,213,212,211,215,217,214,213,210,206,203,203,204,200,196,193,191,189,185,182,180,178,175,173,171,169,166,162,160,162,160,158,156,155,153,152,151,149,148,146,144,142,141,140,139,137,136,135,134,132,131,129,130,128,126,125,125,125,123,122,122,123,122,122,121,120,119,119,117,117,116,115,114,113,113,111,111,110,108,107,106,106,104,103,103,102,101,100,100,100,99,98,98,96,96,95,95,94,93,92,91,91,90,88,87,86,86,86,84,84,83,82,81,80,79,78,78,77,77,76,75,74,74,73,73,72,71,70,70,69,69,68,68,68,66,66,66,66,65,64,64,63,62,61,61,60,59,58,58,58,56,56,55,55,54,53,53,52,52,52,51,50,50,49,50,49,49,49,48,48,47,47,48,48,46,46,46,46,46,45,46,45,45,45,44,45,44,44,44,45,44,43,44,43,43,42,42,42,42,42,41,41,41,40,41,41,41,41,41,40,40,40,40,40,39,40,39,38,38,38,38,38,38,38,37,38,38,37,38,38,38,38,38,37,37,37,36,36,36,36,35,36,35,35,35,34,35,35,34,34,34,33,34,34,33,33,33,33,33,33,33,33,33,34,33,34,34,34,34,33,34,34,34,33,33,32,32,32,31,32,31,30,31,31,30,30,31,31,31,30,31,30,30,30,29,29,29,28,29,28,28,28,28,28,28,28,27,28,28,29,28,28,28,29,28,28,28,27,27,27,26,27,27,26,27,26,25,26,26,25,26,25,25,24,24,24,24,24,23,23,23,24,24,23,23,23,23,23,23,22,22,22,22,22,22,21,21,21,22,21,21,20,20,20,20,19,19,20,20,20,19,19,19,19,19,19,19,18,19,18,19,18,18,18,18,17,17,17,17,17,17,17,17,17,17,16,17,16,16,16,16,16,16,15,16,15,16,15,15,15,15,15,15,15,15,14,15,14,14,14,14,14,14,14,14,14,14,14,14,14,14,13,13,14,14,13,13,14,13,13,13,13,13,13,13,13,13,13,13,13,13,13,13,13,13,12,12,13,13,13,13,12,12,12,13,13,13,13,12,12,12,12,12,12,12,12,13,12,12,12,12,12,13,12,12,12,13,12,11,11,12,11,12,12,12,12,12,11,11,12,12,12,12,11,11,12,12,12,11,11,12,12,12,11,12,12,12,11,12,12,12,12,11,11,11,12,10,11,11,10,11,11,11,10,10,10,11,10,10,11,10,10,11,11,10,11,10,11,11,11,11,11,11,11
61,61,62,61,62,61,61,61,60,61,61,61,60,60,60,60,61,60,60,60,60,60,59,60,59,60,59,59,60,60,60,61,61,60,61,61,61,61,61,61,61,61,61,61,61,61,61,61,62,62,62,62,61,62,62,62,61,62,61,61,61,60,61,61,62,62,61,62,62,63,63,63,63,63,63,62,62,62,63,62,62,61,61,61,61,62,61,61,61,61,61,61,60,61,61,62,62,62,62,62,61,61,61,61,60,61,60,60,61,60,60,59,60,61,64,67,68,69,69,70,72,73,74,75,76,76,76,76,77,76,76,76,76,76,76,77,77,76,77,77,77,77,77,76,76,76,76,76,75,75,75,74,74,74,74,74,73,73,73,72,72,71,72,71,71,71,71,71,70,69,70,70,69,68,69,69,69,68,68,68,68,68,68,68,68,67,67,67,67,66,67,66,67,67,66,66,66,67,66,66,66,66,66,66,66,66,66,66,67,66,66,66,66,66,66,65,65,65,65,64,63,64,64,65,64,64,64,64,64,64,63,63,64,64,64,64,64,65,65,65,65,66,66,66,67,66,67,66,67,67,68,68,69,69,69,70,71,72,72,72,72,72,73,73,73,75,75,76,76,76,76,77,77,77,77,77,77,77,77,78,76,76,77,78,78,78,79,81,83,88,90,90,91,90,90,90,89,90,90,90,89,89,88,87,88,89,91,92,91,91,91,90,89,88,89,90,90,91,95,95,96,95,96,96,96,97,97,97,100,102,101,103,102,100,101,102,102,102,103,103,103,103,102,103,102,102,104,104,104,105,105,106,106,105,105,105,104,104,106,106,108,108,109,111,111,111,110,112,112,113,112,112,111,109,108,108,107,108,108,108,107,107,106,106,106,107,106,106,105,105,104,104,103,102,102,102,101,100,101,102,102,102,101,101,102,102,100,101,101,101,101,101,102,102,102,101,100,100,99,99,100,100,100,99,100,100,100,100,100,99,99,99,98,97,96,95,95,95,94,94,93,92,92,92,91,91,91,91,90,90,90,90,89,89,89,88,88,89,88,88,87,88,88,89,89,88,88,89,88,89,88,88,88,87,87,86,86,85,84,85,84,84,83,83,82,81,81,81,80,80,80,79,79,78,78,77,77,78,77,76,76,75,75,74,74,74,73,73,72,73,73,72,72,71,72,71,72,72,71,70,70,70,70,70,69,68,68,68,67,68,67,67,67,67,66,66,67,66,66,66,67,66,67,67,67,66,66,65,66,66,66,67,66,65,66,65,65,65,65,64,64,64,64,64,64,64,64,64,64,63,63,63,63,62,63,63,62,62,62,62,62,63,62,62,62,62,63,64,65,65,66,65,66,66,67,67,67,67,68,68,69,69,69,69,69,69,69,69,69,69,68,69,69,71,71,72,73,74,74,73,74,74,75,76,76,76,76,75,75,75,75,75,75,74,74,74,74,76,76,76,77,78,79,79,80,80,80,79,80,80,80,79,79,78,78,78,78,77,78,78,77,79,79,79,80,80,81,81,83,82,83,82,82,82,81,82,82,83,83,84,84,84,83,83,83,84,85,85,85,87,88,89,89,89,89,89,88,89,89,89,89,89,89,90,90,90,90,90,89,90,91,91,92,91,91,90,91,91,92,91,92,91,91,90,89,89,90,92,96,99,103,105,105,105,105,105,104,106,108,110,110,110,110,111,111,112,112,112,113,113,112,112,112,111,111,110,110,110,110,110,110,110,109,110,111,111,111,112,112,112,113,113,113,113,114,113,112,111,111,111,111,112,111,112,113,113,113,113,113,113,113,113,113,113,113,113,113,113,113,113,112,113,112,112,112,112,112,112,111,111,110,109,109,109,109,109,108,107,107,108,109,108,108,107,107,107,108,109,110,109,109,109,110,110,109,109,109,110,109,109,109,109,109,109,110,109,109,109,109,108,108,108,108,108,108,108,107,107,107,107,107,106,105,105,105,104,103,104,103,103,103,103,102,102,103,102,103,102,102,101,101,100,99,99,98,98,98,98,99,99,99,99,99,100,99,99,98,98,98,98,99,98,97,97,96,96,95,95,95,94,94,94,94,94,94,94,94,93,93,92,92,92,92,92,91,91,92,92,91,91,90,90,89,89,88,88,89,88,88,88,88,89,90,90,89,88,88,88,88,88,87,87,86,87,86,86,86,86,85,85,84,85,84,83,83,82,82,81,82,81,81,81,80,61,61,61,61,62,62,61,61,61,61,61,61,61,61,61,61,61,62,62,62,61,62,61,61,62,62,61,62
11,11,10,11,11,11,10,11,11,11,10,11,11,11,11,11,11,10,11,11,11,11,11,11,11,10,11,11,11,11,11,11,10,11,10,10,11,10,11,10,11,11,11,10,11,11,10,11,11,11,11,11,11,10,10,11,11,11,11,11,11,11,11,11,10,11,11,11,11,11,11,11,11,10,11,11,11,11,11,11,11,11,11,11,11,11,11,10,11,11,11,11,10,10,11,10,11,11,11,11,11,11,11,11,10,11,11,11,11,11,11,10,10,11,10,10,11,11,11,10,10,10,11,11,11,11,11,11,10,11,10,11,11,11,11,11,11,11,11,10,11,11,11,11,11,11,11,11,10,11,11,11,11,11,11,10,11,10,11,11,10,10,11,10,11,11,11,11,11,11,10,10,11,11,11,11,11,11,11,11,11,11,11,11,11,11,11,11,11,11,11,11,11,11,11,11,11,11,13,13,13,14,14,14,14,14,13,15,16,22,27,28,29,32,34,34,34,34,36,41,46,46,49,56,57,57,56,55,55,57,59,59,58,57,56,56,56,56,59,59,63,73,85,88,90,96,105,106,108,108,110,112,112,118,121,122,130,136,142,143,147,151,157,162,167,166,163,162,160,157,156,155,156,156,162,163,163,168,169,176,197,212,211,217,218,214,214,220,228,233,231,238,237,233,228,225,229,236,246,254,256,260,257,253,249,245,243,242,242,242,250,259,286,306,311,316,338,345,337,334,329,328,326,327,322,329,338,336,355,365,364,366,376,379,380,389,386,383,385,378,376,371,366,366,363,358,356,357,353,352,347,343,336,331,333,335,333,328,326,323,323,353,370,367,363,364,362,358,358,359,359,355,349,348,344,339,336,332,327,322,316,322,318,320,328,325,325,319,314,323,346,348,344,344,349,348,345,338,330,325,320,323,320,316,313,306,301,294,290,285,280,275,269,267,263,265,264,259,255,251,246,243,244,242,241,239,236,235,233,229,226,222,219,215,210,207,203,198,194,191,187,183,179,176,173,168,165,161,158,155,151,149,145,142,141,139,137,135,133,134,131,130,129,127,125,123,121,119,117,114,112,111,108,106,106,105,105,103,101,100,98,96,94,93,92,90,89,87,86,84,83,81,80,79,78,76,75,74,73,72,71,70,69,69,67,66,66,65,64,63,62,62,61,61,60,60,59,58,58,56,55,55,54,53,52,51,51,50,49,48,48,47,46,46,45,44,43,43,43,42,42,41,41,40,40,39,39,38,38,38,37,36,37,36,36,35,35,35,34,34,33,33,33,32,32,31,31,31,31,30,30,30,30,30,30,29,29,29,29,30,29,29,29,29,29,29,28,28,28,28,28,28,27,27,27,27,27,26,26,26,25,25,25,25,25,25,24,24,25,24,24,24,23,24,24,23,22,23,22,22,22,22,22,22,21,21,21,21,21,20,21,20,20,19,19,19,20,20,19,20,19,19,19,19,19,18,18,19,18,18,19,19,18,18,18,18,18,19,18,18,18,18,19,18,18,18,18,17,17,18,17,17,18,18,18,17,17,17,17,17,17,17,17,17,17,17,17,17,17,17,17,17,17,17,17,17,16,17,17,17,16,16,16,16,16,16,16,17,16,17,16,16,16,16,15,16,15,16,15,15,16,15,15,15,16,15,15,15,15,15,15,15,15,14,15,14,14,14,14,14,14,14,14,14,14,14,13,14,14,14,14,13,13,13,13,13,13,13,13,13,13,12,13,13,13,13,13,12,13,12,12,13,12,12,13,13,13,12,12,12,12,12,12,13,11,12,12,12,12,12,12,12,12,12,12,12,11,12,11,12,12,11,12,12,12,11,11,11,12,12,12,11,11,11,11,11,12,11,11,12,11,12,11,11,11,11,12,11,11,11,11,11,11,11,11,12,12,12,11,10,11,11,11,12,11,11,11,11,11,11,11,11,11,11,12,12,11,11,11,11,12,11,11,11,11,11,11,11,12,11,11,11,11,11,11,11,11,11,11,11,11,11,12,11,11,11,11,11,11,12,11,12,11,11,11,11,11,12,11,10,11,11,11,11,11,11,11,11,11,11,11,12,11,11,11,11,12,11,11,11,11,11,11,11,11,11,11,11,11,11,11,11,11,11,11,11,11,11,11,11,11,11,11,11,11,10,11,11,11,11,11,11,12,11,11,11,11,11,11,11,12,11,11,11,11,11,11,11,11,11,11,12,12,12,12,12,12,12,13,12,12,12,12,12,12,12,12,12,12,12,11,12,13,13,12,12,12,12,12,12,12
61,62,62,62,63,63,62,62,62,63,62,63,62,62,62,62,63,62,63,62,62,62,62,62,62,62,62,62,62,62,63,63,63,63,63,63,63,63,63,63,63,63,62,62,63,62,62,62,62,62,62,61,61,61,62,62,61,62,62,61,62,61,62,62,62,63,62,62,62,62,62,62,63,62,62,62,62,62,62,62,62,61,61,61,61,62,62,62,62,62,61,62,61,62,62,61,62,61,62,62,62,62,61,62,61,61,61,61,61,61,61,61,61,62,62,63,62,61,62,62,62,62,61,62,62,62,61,62,62,62,61,61,61,61,61,61,61,61,61,61,61,61,60,60,60,60,60,60,60,60,60,60,61,60,60,61,60,59,60,61,60,61,61,61,61,61,62,61,62,62,61,61,61,61,61,61,61,61,61,60,61,60,61,60,60,60,60,60,60,60,61,60,60,59,60,59,60,60,60,60,60,59,60,60,60,60,60,60,60,60,59,60,60,60,60,60,60,60,60,60,60,60,61,61,61,60,60,60,60,60,60,60,60,60,60,60,60,61,61,62,63,63,64,64,64,64,64,64,63,64,65,64,64,65,65,65,65,65,65,65,66,68,68,69,70,70,71,71,71,73,73,73,73,74,75,76,77,79,78,77,77,77,78,78,78,78,77,78,77,77,78,80,81,82,82,82,81,82,85,85,85,85,85,86,85,85,84,85,85,86,89,90,89,88,89,89,90,91,94,93,93,92,93,95,96,96,96,96,97,101,101,100,100,99,99,101,102,102,105,104,104,104,103,103,104,105,107,108,108,108,106,107,106,105,105,107,106,106,105,106,113,112,112,111,111,111,110,109,110,110,110,109,109,109,108,107,106,108,108,108,108,109,108,108,110,110,110,110,109,108,107,106,106,107,108,108,109,108,109,108,108,109,109,108,107,107,107,107,106,108,107,105,106,106,106,107,107,106,107,106,106,105,106,107,107,105,106,105,105,105,104,105,105,105,105,105,105,105,105,106,105,105,105,105,105,105,105,105,105,104,104,103,103,102,101,102,101,101,101,101,101,101,102,102,103,104,104,105,105,105,104,103,101,101,101,100,100,100,100,100,100,100,99,98,98,98,97,97,96,96,96,96,95,94,94,93,93,93,93,93,92,91,90,90,90,91,90,91,92,94,95,97,99,99,100,99,99,98,97,96,95,95,94,93,92,92,91,90,90,89,89,90,89,90,90,90,91,91,90,90,89,89,89,89,88,88,88,88,88,89,89,89,88,88,86,86,87,86,85,86,86,86,85,85,85,84,84,83,83,82,81,81,81,80,80,79,79,80,79,79,79,78,78,77,77,77,77,77,76,76,75,76,75,76,75,75,76,75,76,75,75,76,75,75,74,74,74,73,74,73,73,72,73,73,72,72,72,71,71,71,71,71,71,71,71,72,72,72,71,71,72,71,71,71,71,71,71,73,73,75,76,77,77,77,77,77,76,76,75,75,75,75,75,75,75,76,76,76,77,77,76,77,77,77,77,77,77,77,77,77,77,77,78,78,78,78,78,78,78,79,79,79,80,80,79,80,80,81,80,80,80,80,80,80,80,80,80,81,79,79,80,80,79,79,79,79,80,79,80,80,80,80,80,81,81,81,81,82,81,81,81,81,80,80,81,80,79,80,79,79,80,80,79,80,79,79,79,80,81,79,79,80,79,79,79,79,78,78,78,78,77,77,77,76,77,77,77,77,77,78,77,77,77,78,78,78,78,77,77,77,77,77,76,76,76,76,76,75,76,75,75,76,75,74,75,74,74,74,74,74,74,74,74,75,74,74,74,74,75,74,74,74,74,74,74,74,74,73,73,73,72,71,71,71,72,71,71,71,72,72,72,72,72,71,72,71,71,71,71,71,70,70,70,70,70,69,69,69,69,69,69,69,69,69,69,69,69,69,69,69,68,69,69,69,68,69,68,69,68,68,67,68,67,68,67,67,67,67,67,68,68,68,68,68,69,69,68,69,69,68,68,68,69,68,68,68,68,67,68,68,68,67,68,68,67,67,67,67,67,66,66,67,66,66,66,66,66,66,66,66,66,66,65,66,65,65,65,65,64,64,65,64,64,64,63,63,63,63,64,64,63,64,64,64,63,63,63,63,62,62,62,62,63,63,63,62,62,62,63,63,62,62,62,62,62,63,62,62,61,62,61,62,61,61,61,60,60,60,61,60,60,58,58,58,57,58,58,58,57,57,57,58,57,57,58,57,57,57,57,57,57,57,57,57,57,56,57,56,57,57,57
12,12,13,12,12,12,12,12,11,12,12,12,12,12,12,11,12,12,13,11,12,12,11,12,11,12,12,12,12,12,11,12,11,11,12,11,11,12,11,11,12,12,12,11,12,11,11,11,12,12,11,11,11,11,12,11,12,11,11,11,11,11,11,12,11,12,12,12,12,11,12,11,11,11,11,11,12,11,11,11,11,11,11,12,12,11,11,11,11,11,12,11,11,11,11,11,11,11,12,11,11,11,11,11,12,12,11,11,11,11,11,11,11,11,12,12,11,11,12,11,11,11,11,11,11,11,11,11,11,11,11,11,11,12,11,11,11,11,11,11,11,11,11,11,11,11,11,11,11,11,11,11,11,11,11,11,11,11,11,11,11,11,11,11,11,11,11,11,11,12,11,11,11,11,11,12,11,11,12,12,13,16,19,20,23,25,25,25,25,24,24,24,23,24,23,23,23,22,22,22,22,23,25,25,26,26,30,37,39,45,51,56,60,63,64,63,62,61,63,63,63,66,69,79,88,91,100,104,105,105,103,104,101,104,108,110,108,110,110,113,111,111,110,109,109,114,114,116,122,123,122,131,136,134,135,135,134,134,138,142,143,142,143,146,144,144,145,144,147,145,145,143,141,138,140,147,149,148,150,160,162,168,172,172,170,169,167,164,162,169,187,205,215,213,211,207,204,205,210,208,207,206,204,207,214,223,221,228,238,241,247,246,242,240,235,237,244,256,265,264,264,262,260,260,259,271,293,301,296,291,287,297,300,311,320,318,329,353,356,354,363,362,362,378,388,388,399,396,390,387,389,395,393,398,426,459,466,479,477,485,510,534,534,532,526,528,531,542,546,545,537,553,580,584,593,592,593,588,586,581,588,577,570,560,551,554,560,557,559,575,579,584,588,592,585,579,570,568,576,576,564,553,552,580,589,584,586,586,576,568,563,557,549,540,537,545,541,539,550,558,566,555,550,541,537,527,527,529,520,513,504,499,493,490,488,481,480,477,467,463,466,461,456,451,447,439,435,430,426,429,431,428,419,411,403,394,388,380,372,365,357,350,342,336,328,322,315,308,302,296,289,283,277,272,266,262,258,253,248,242,238,235,230,225,221,219,216,213,212,208,204,199,196,192,188,185,182,181,178,174,171,169,166,163,160,158,156,153,151,150,147,145,142,140,139,137,136,134,133,131,130,128,127,126,124,123,122,121,120,119,118,116,116,115,114,113,112,112,111,111,109,109,108,107,106,105,105,104,103,102,101,100,99,99,98,97,97,95,95,94,93,92,92,92,91,90,89,88,88,87,87,86,85,84,84,83,82,81,81,80,79,79,78,78,77,77,77,76,76,75,74,75,74,74,73,73,72,72,71,70,70,70,70,69,69,69,68,68,68,68,68,67,67,67,67,66,66,65,65,65,65,64,64,64,64,64,64,64,63,63,63,63,63,63,63,63,62,62,62,61,61,61,62,61,61,61,60,61,60,61,61,60,60,60,60,60,60,60,60,59,59,58,58,58,58,57,57,57,57,57,57,57,56,56,56,56,56,56,56,56,55,56,55,56,55,55,54,54,54,54,53,54,54,54,54,53,53,53,53,53,53,53,53,53,53,53,53,53,52,52,51,51,52,51,50,50,50,50,50,50,49,49,49,49,49,49,49,49,48,48,48,48,49,47,47,47,46,45,46,46,45,44,45,44,43,44,43,43,43,42,42,42,42,42,41,41,41,40,40,40,40,39,39,38,38,37,37,37,37,36,36,36,35,35,35,34,34,33,33,33,32,32,32,31,31,31,30,30,30,30,29,29,29,29,29,27,27,27,27,26,27,26,25,26,25,25,25,24,24,24,23,24,23,23,23,23,22,22,22,22,22,22,21,21,21,21,20,21,20,20,19,20,19,20,20,20,19,19,19,19,18,19,18,18,18,18,18,18,18,18,18,17,17,17,17,17,17,17,17,17,16,16,17,17,16,16,16,16,16,16,15,16,16,15,15,15,15,15,15,15,15,14,15,15,14,15,14,14,14,14,15,14,14,14,14,14,14,14,13,14,13,13,14,13,13,13,14,13,14,13,13,13,13,13,13,13,13,13,13,13,13,13,13,13,12,13,12,13,12,13,12,13,13,13,13,12,12,12,12,13,12,12,12,12,12,12,12,12,12,12,12,12,12,12,11,12,12,13,12,12,12,11,12,13,12,12,12,12,12,11,11,11,10,10,11,11,11,11,11,11,10,11,11,11,11,11,11,11,11,11,11,11,11,10,11,11,11,11,11,11,11
57,57,57,56,57,57,57,57,56,56,57,58,57,57,57,56,57,57,57,57,57,57,57,57,57,57,57,56,57,57,57,57,57,57,57,58,57,57,57,57,57,57,57,57,57,57,57,57,57,57,57,57,57,57,57,57,57,57,57,58,57,57,57,57,57,57,57,57,57,57,57,57,57,57,57,57,57,58,57,58,58,57,57,57,57,57,57,57,57,57,57,57,57,57,57,57,57,57,57,56,57,56,57,56,56,57,58,58,57,57,57,57,58,57,57,57,58,57,57,57,57,59,58,58,58,59,59,60,59,60,61,61,60,60,60,60,61,60,60,61,62,62,62,63,63,64,64,65,67,67,67,67,67,69,70,73,74,74,75,79,84,86,87,88,93,99,105,109,109,111,114,114,116,116,115,117,120,122,122,123,127,131,134,134,136,139,139,139,138,137,141,147,152,157,159,163,168,170,176,188,199,210,210,208,205,203,203,203,205,209,211,210,208,205,203,203,201,199,197,196,194,193,192,189,188,186,182,180,178,175,173,170,168,165,164,162,160,159,157,156,154,152,150,148,147,145,144,142,141,139,137,135,134,132,131,129,128,125,124,124,122,120,120,118,118,116,115,114,113,112,111,110,109,109,108,107,106,105,104,104,104,103,102,101,102,102,101,102,100,100,99,98,98,97,96,96,95,94,94,93,92,92,91,91,90,90,89,88,88,88,87,87,87,86,86,86,88,88,88,87,87,88,88,89,92,92,96,96,96,95,95,96,98,97,97,97,98,98,97,97,96,96,98,97,98,101,102,101,101,100,99,99,98,99,100,100,100,101,101,100,99,100,100,101,104,107,106,108,107,108,107,108,107,109,113,114,113,112,111,112,115,116,115,114,114,114,114,113,112,112,116,118,118,117,115,114,115,116,117,121,122,120,119,121,120,119,119,120,119,123,126,128,127,125,124,123,122,122,121,121,120,120,121,120,121,121,124,123,122,122,122,126,126,125,124,123,121,120,122,121,121,120,121,119,118,117,116,116,115,115,115,114,113,112,111,112,112,112,112,112,112,113,113,113,112,112,112,111,110,110,109,108,107,106,106,106,105,105,104,104,103,103,104,104,104,105,105,104,103,102,101,100,99,98,97,97,96,96,95,93,93,92,92,92,91,90,89,90,88,88,87,86,86,85,85,84,84,83,82,82,81,82,81,82,81,81,81,81,80,80,79,78,79,78,78,78,78,77,77,77,77,77,77,76,76,78,78,78,77,77,79,80,83,85,85,86,88,90,91,92,93,95,95,96,96,96,97,96,95,95,96,99,101,104,104,104,104,104,103,103,102,102,102,102,101,100,99,98,97,96,96,95,94,94,94,93,92,92,92,92,92,92,92,92,92,91,91,91,91,90,89,89,88,88,88,88,87,88,88,89,89,88,88,88,87,89,88,88,88,87,87,87,86,86,86,86,85,86,86,85,86,86,86,86,87,87,87,87,86,86,85,84,84,84,84,84,84,84,85,85,85,86,87,87,87,87,87,87,88,88,88,88,87,88,88,88,88,88,88,88,88,89,89,89,90,91,91,92,92,93,93,93,93,92,92,93,92,92,91,91,91,92,92,92,93,93,94,94,95,95,96,96,96,97,97,98,97,98,98,99,98,98,97,97,97,97,97,97,98,98,98,98,98,98,98,98,99,99,99,99,99,99,100,99,99,100,99,99,99,99,99,99,98,98,98,98,98,98,99,98,98,99,99,98,99,98,98,97,96,96,96,97,96,96,96,97,96,96,97,97,97,97,97,98,97,97,98,97,97,97,96,96,96,96,95,95,95,95,95,95,95,95,95,95,96,95,95,95,94,94,94,93,94,93,93,92,93,92,92,92,92,92,91,91,91,91,91,91,91,91,91,92,91,91,91,91,90,90,90,91,90,90,89,89,89,88,89,88,89,88,88,89,89,89,89,89,89,88,88,87,87,87,87,86,86,86,86,86,87,85,85,87,86,87,85,86,86,86,86,86,86,86,86,86,85,85,85,85,85,85,84,84,84,83,84,84,84,84,84,84,84,84,83,84,84,83,83,84,83,85,85,85,84,83,84,85,84,84,83,84,83,83,83,83,83,83,82,83,82,83,82,82,82,81,82,81,81,81,81,81,81,81,81,81,81,81,80,80,80,80,80,80,80,79,80,78,79,79,78,77,77,77,78,78,77,77,77,76,76,64,64,64,63,63,64,64,63,63,63,63,63,63,63,63,63,63,64,63,63,64,63,63,63,63,63,63,63,63,65,65,64
10,11,10,10,10,11,10,11,10,10,10,11,11,11,10,10,11,11,11,11,11,11,11,11,10,11,11,11,10,11,11,11,11,11,11,11,11,11,11,11,11,11,11,12,11,11,10,10,11,11,11,11,11,10,11,11,11,11,10,11,11,11,11,11,11,10,11,11,11,11,11,11,11,11,10,11,11,11,11,11,11,11,11,11,11,10,11,11,11,11,11,10,11,10,11,10,10,11,11,11,11,11,11,11,11,11,11,11,11,11,11,11,11,11,11,10,11,11,11,11,11,11,11,11,11,11,11,11,11,11,11,10,11,10,10,11,11,10,11,11,11,10,11,10,11,10,11,11,11,11,11,10,11,11,11,11,11,11,11,11,10,11,10,11,11,11,11,11,11,11,11,10,11,11,11,11,11,11,11,11,11,10,11,11,11,11,11,11,11,11,12,12,13,11,12,11,12,13,16,20,25,27,28,29,32,35,36,36,35,35,35,35,34,33,33,33,33,33,33,32,32,31,31,31,30,32,33,33,34,35,34,35,34,33,33,32,32,32,32,33,34,35,34,33,33,34,33,32,32,32,31,31,31,30,30,30,29,28,28,28,31,34,37,37,37,35,36,37,44,54,60,64,66,67,70,74,74,75,77,80,83,86,87,86,89,90,88,88,86,88,87,87,87,99,115,122,122,119,118,119,121,120,120,122,125,125,127,129,135,154,189,229,265,283,283,291,309,323,322,317,311,305,301,302,308,313,317,318,338,346,342,336,336,335,332,334,330,324,330,354,367,364,368,385,391,395,400,395,387,380,378,389,396,394,408,417,422,430,434,435,430,433,430,432,427,432,448,446,447,440,433,427,424,423,416,409,403,413,430,447,468,473,479,497,496,499,493,487,482,476,467,463,462,464,490,524,530,532,535,532,532,543,552,570,568,569,570,576,576,580,586,575,572,575,570,572,568,558,548,537,527,522,516,507,506,495,486,477,473,469,463,461,486,498,496,491,492,493,489,485,476,466,459,453,446,444,439,437,437,451,456,451,444,439,436,432,426,418,410,404,403,420,432,435,435,429,423,417,425,425,444,462,455,460,462,466,463,453,450,458,461,457,452,456,451,447,441,434,427,421,416,420,413,409,407,404,396,389,385,379,374,369,363,357,351,343,336,330,325,319,317,313,309,304,297,292,287,281,276,271,267,262,257,252,247,243,241,238,233,229,224,221,218,214,212,210,208,205,203,199,197,194,192,189,187,184,182,180,177,175,173,170,168,165,163,162,159,158,158,158,155,153,151,149,146,144,142,141,140,138,136,135,133,132,130,129,128,127,125,124,122,121,121,119,118,117,116,115,114,113,111,111,109,109,107,107,106,104,104,103,102,102,100,100,98,98,98,97,96,95,94,93,92,91,91,90,90,89,88,87,87,87,86,86,85,85,84,83,83,82,83,82,81,80,80,80,79,79,79,78,77,77,77,76,75,75,74,74,73,73,73,72,71,71,70,70,69,69,68,68,67,66,66,65,64,63,63,63,62,61,62,61,61,60,60,59,59,59,58,57,56,56,56,55,54,54,54,53,53,52,52,51,52,51,50,50,50,50,50,50,50,49,49,49,48,48,48,47,47,47,47,48,47,47,46,46,46,46,45,45,45,44,43,43,43,43,42,42,42,42,41,41,41,40,40,40,39,39,39,39,38,38,37,37,37,37,36,36,36,35,35,34,35,35,35,35,34,34,34,34,34,33,33,33,33,32,32,33,32,31,31,31,30,31,30,30,30,30,29,30,30,30,30,29,29,29,29,29,29,28,29,28,28,28,28,28,28,28,28,28,28,28,28,28,28,27,27,28,28,27,27,26,26,27,26,26,27,26,25,25,26,25,25,25,24,24,25,25,24,25,25,24,24,24,24,24,24,24,24,23,24,24,24,23,23,23,23,23,23,23,23,22,22,22,22,21,22,21,22,21,21,21,20,20,20,20,20,20,20,20,20,19,20,20,20,19,20,20,19,19,19,19,19,19,19,19,19,18,18,18,18,18,18,18,18,18,17,17,17,17,17,17,17,17,17,17,17,17,17,17,17,16,16,16,16,16,16,15,16,15,16,15,15,15,15,15,15,15,15,14,16,15,15,15,15,15,15,15,15,14,15,14,14,14,15,14,14,14,14,14,14,13,14,14,13,14,14,14,14,13,14,14,13,13,13,13,13,11,11,11,12,11,11,11,11,11,11,11,11,11,11,11,11,11,11,11,11,11,11,11,11,11,11,11,11,11,11,11,11,11,11
64,65,65,64,64,64,63,63,63,63,63,63,63,63,63,63,63,62,63,63,63,63,64,63,63,65,64,64,65,65,64,64,64,63,64,64,63,63,63,64,63,63,63,63,63,63,63,63,63,63,63,63,63,64,64,63,64,64,64,64,64,64,64,64,64,64,64,64,65,65,66,66,66,67,66,67,66,66,67,67,67,68,68,68,67,67,67,68,68,68,68,67,67,67,67,67,66,67,67,67,66,67,67,67,66,66,67,66,67,67,66,67,67,67,66,66,66,66,67,67,67,68,68,68,67,67,68,67,68,67,67,67,67,67,67,66,67,67,66,66,67,66,66,66,66,66,66,65,66,66,65,66,65,66,66,66,66,66,66,66,66,66,65,65,66,65,65,65,65,65,65,65,66,65,65,65,65,65,65,65,65,65,65,64,65,65,65,65,64,64,64,64,64,65,64,64,63,64,64,64,64,64,63,63,64,65,64,64,64,64,64,64,64,64,64,64,64,65,65,65,65,64,64,64,64,64,63,63,64,64,64,63,64,64,63,64,63,64,63,64,64,64,64,64,64,64,64,64,65,65,65,65,65,65,65,66,66,66,66,66,66,66,66,66,66,67,67,67,67,67,67,67,67,67,68,68,68,67,68,68,68,68,68,68,68,67,67,67,67,67,67,67,66,67,67,67,68,70,69,70,70,69,70,70,70,71,72,72,72,73,72,72,73,73,74,75,75,75,76,75,77,76,76,76,76,76,75,76,77,79,79,78,79,80,80,80,79,79,79,79,78,78,77,79,80,81,80,82,83,84,84,84,85,85,85,88,88,89,90,91,90,90,92,92,92,92,93,94,93,93,93,92,92,94,94,93,94,95,94,94,94,98,100,99,100,100,99,98,98,97,97,97,98,99,99,99,100,100,100,99,98,99,101,101,103,104,103,103,103,103,102,103,104,103,103,103,104,105,107,107,106,106,105,105,105,109,109,109,108,108,107,108,108,108,108,109,109,108,109,107,108,111,110,110,109,109,109,108,108,108,110,110,110,110,110,109,108,108,108,108,108,108,108,107,106,107,108,109,108,107,108,109,108,106,106,105,105,107,106,106,106,106,106,107,107,106,105,105,104,104,104,104,104,105,105,105,107,106,106,105,105,105,106,105,105,103,102,102,102,102,101,101,101,100,101,101,101,101,100,100,101,101,101,101,101,100,100,100,100,100,99,100,98,98,98,98,97,96,96,95,96,96,97,97,97,98,98,98,98,97,98,96,97,96,96,96,95,95,95,95,94,95,94,94,93,92,93,93,93,93,93,94,94,93,93,93,92,92,91,91,90,91,91,92,92,92,93,94,93,92,93,92,92,92,92,92,91,90,90,90,90,91,91,92,92,91,91,90,90,89,89,89,88,87,87,87,85,86,85,85,84,85,84,85,85,84,84,84,84,83,83,83,83,82,82,82,82,81,81,80,80,79,79,79,79,79,79,79,80,80,81,82,81,81,82,82,82,81,81,81,82,83,83,83,83,83,83,82,82,81,81,80,79,79,79,78,78,77,77,77,77,77,77,77,76,76,76,76,76,76,75,75,75,75,75,74,74,74,73,73,73,73,73,73,72,72,72,72,72,71,71,71,71,70,70,70,70,71,71,72,72,73,73,74,74,73,73,73,73,73,72,72,72,72,72,73,73,73,73,74,74,75,76,75,76,76,76,78,77,78,79,77,77,78,78,78,79,78,79,79,79,80,79,79,80,80,81,80,81,81,82,82,82,82,82,83,83,83,83,83,84,84,85,85,86,86,86,86,86,86,87,88,88,87,88,88,88,88,88,88,87,88,88,87,88,89,89,89,89,90,90,90,90,91,90,91,91,92,91,92,92,91,91,92,91,91,92,92,92,92,92,92,91,91,90,89,89,89,88,88,88,89,88,88,87,88,87,87,86,86,86,85,86,85,86,86,86,87,87,87,87,86,87,86,86,85,86,85,85,85,84,84,83,83,83,82,82,82,82,82,82,82,81,81,81,80,80,80,80,79,79,80,79,79,79,79,80,79,79,79,78,78,78,78,77,77,77,76,76,76,76,76,75,75,75,75,75,74,74,74,73,73,73,73,73,72,72,72,72,71,71,71,70,70,70,70,70,71,70,71,69,70,69,69,69,69,69,68,69,68,68,68,68,67,67,67,67,66,66,66,66,66,65,65,64,65,65,64,64,65,64,64,64,64,64,64,64,64,64,64,63,63,63,63,63,63,64,64,64,63,63,63,63,63,63,62,62,62,62,62,62
11,11,11,11,11,11,11,11,11,11,10,11,11,11,11,11,11,11,10,11,11,11,11,11,10,11,11,11,11,10,11,11,11,11,11,11,11,11,11,11,11,11,11,11,11,11,11,11,11,11,11,10,10,11,11,11,11,11,11,11,11,11,11,11,10,11,11,11,11,11,11,11,10,11,10,11,11,10,11,11,11,11,11,11,11,11,11,11,11,11,11,11,11,11,11,11,11,11,11,11,11,11,11,11,11,11,11,11,11,11,11,11,11,11,11,11,11,11,11,11,11,11,11,11,11,11,11,11,11,11,11,11,11,11,11,11,11,11,11,11,11,11,11,11,11,11,11,11,11,11,11,11,11,10,11,11,11,11,11,11,11,11,11,11,11,11,11,11,11,11,11,11,11,11,11,11,12,13,12,15,17,18,18,21,23,22,23,22,22,22,22,21,21,21,21,21,21,20,21,22,26,31,37,38,38,38,38,38,39,40,40,41,40,40,39,41,42,43,44,44,45,46,48,49,48,47,49,54,58,60,62,66,73,80,81,83,84,85,83,86,87,87,85,84,83,82,82,80,80,80,78,79,82,87,101,113,115,117,124,127,125,127,134,139,140,143,143,144,142,144,144,144,140,145,155,172,177,176,177,178,184,183,181,180,183,190,197,197,200,197,195,192,190,192,190,186,184,184,183,191,193,194,193,191,189,188,190,191,195,208,246,296,342,360,372,376,372,375,370,375,375,377,376,368,365,361,358,357,367,374,371,366,360,359,357,368,384,404,433,449,459,465,474,477,480,483,482,483,480,478,489,492,488,503,504,505,502,506,522,516,512,504,504,516,514,505,500,495,498,495,488,493,510,501,495,490,483,474,466,465,464,462,456,457,487,497,505,497,503,505,504,496,486,477,470,462,453,444,436,429,423,423,425,440,451,449,447,441,435,432,426,420,414,405,404,412,418,411,407,406,402,401,397,401,398,398,393,390,387,383,378,372,364,360,354,347,341,334,327,321,317,312,306,302,298,292,287,284,279,275,269,265,260,255,250,246,241,237,233,230,226,221,218,218,214,211,207,203,199,196,192,189,186,182,179,176,173,170,168,165,162,160,157,154,152,150,148,146,144,142,139,137,135,134,134,133,132,131,130,128,127,126,124,123,122,121,120,119,117,116,116,114,113,112,110,109,108,107,106,104,103,102,101,100,99,99,98,97,96,95,94,93,93,92,91,91,90,89,88,87,87,87,86,86,85,85,84,84,83,82,81,81,80,80,80,79,78,78,78,78,77,77,76,76,76,75,74,74,73,73,73,73,72,72,71,70,69,69,69,69,68,68,67,66,66,66,66,65,65,64,64,64,63,63,63,62,62,61,61,61,61,61,60,60,60,59,59,58,58,58,57,57,57,57,57,57,56,56,55,55,55,55,54,54,53,53,53,53,52,52,52,52,51,51,51,51,50,50,50,50,49,49,49,48,49,48,48,48,47,47,47,46,46,47,47,46,46,46,46,45,45,45,44,44,44,44,43,44,44,43,43,43,44,43,43,43,42,42,41,41,41,41,41,41,40,39,40,39,39,39,38,38,38,38,37,37,36,37,36,36,36,35,35,35,34,34,34,34,34,33,33,33,33,32,32,32,32,31,31,31,31,31,30,30,30,30,30,29,29,29,29,28,29,28,28,28,28,27,28,28,27,27,27,26,26,26,26,25,26,25,25,25,25,24,24,24,24,24,24,23,23,24,23,23,23,23,23,22,23,22,22,22,22,22,22,22,21,21,21,21,21,21,21,21,21,21,20,20,20,20,19,20,19,19,19,19,20,19,18,19,19,19,19,19,18,18,17,18,18,18,17,17,18,17,18,17,17,17,17,16,17,17,17,16,16,16,16,16,16,16,16,16,16,16,15,16,16,16,15,15,16,15,15,15,15,15,15,15,15,15,15,14,15,15,14,14,14,14,15,14,14,14,13,14,15,14,14,14,14,14,14,14,14,13,13,13,13,14,13,13,13,13,13,14,13,13,13,13,13,13,13,13,12,13,13,13,13,13,13,12,12,12,12,12,13,12,12,12,12,12,12,12,12,12,12,12,12,12,12,12,12,12,12,12,12,12,12,12,11,11,12,12,12,12,12,12,12,12,11,12,12,12,12,12,12,12,12,13,13,12,12,12,12,12,12,12,12,11,11,11,12,11,11,11,11,11,11,11,11,11,11,10,11,10,11,11,11,11,11,10,11,11,11,11,11,11,11,11,11,11,11,11,11,11,10,11,10,10,11,11,11
62,62,61,61,61,62,62,61,62,62,62,62,62,62,62,63,62,61,62,63,62,62,63,62,62,63,62,63,62,62,62,63,63,62,62,62,62,62,61,62,61,62,61,61,61,61,61,62,61,63,62,62,62,62,62,62,62,62,62,62,62,62,61,62,61,61,62,61,61,61,61,61,61,61,61,60,60,60,60,60,60,60,59,60,60,60,60,60,60,60,60,61,60,60,60,60,60,60,59,59,59,60,60,61,61,60,60,60,60,61,61,60,60,60,60,60,60,61,59,60,60,60,59,60,59,60,60,60,61,61,61,61,61,61,61,61,61,61,61,61,61,61,62,62,62,62,61,62,61,61,61,61,61,61,62,62,62,62,62,61,62,62,62,62,63,62,62,62,62,62,61,62,62,62,61,61,62,61,62,63,62,61,61,61,61,61,60,60,61,60,61,60,60,60,61,60,60,61,61,61,61,61,61,60,61,60,60,61,61,61,61,61,61,61,61,61,61,61,62,63,63,64,64,63,63,63,64,66,65,67,67,68,70,69,69,69,69,69,69,71,71,70,70,70,71,71,70,71,71,71,71,71,73,74,73,74,74,75,75,76,76,76,76,75,76,75,76,78,79,80,78,79,78,78,77,77,78,81,82,81,81,80,82,82,82,83,83,82,82,82,81,83,83,86,88,88,88,87,88,89,91,93,92,93,93,93,91,91,91,92,92,92,92,92,93,95,96,96,95,95,96,96,98,100,99,99,99,102,103,105,106,106,105,104,105,107,106,111,111,111,110,111,110,109,110,111,110,112,112,112,112,113,114,114,113,113,112,113,114,114,113,113,112,114,114,113,115,115,116,114,115,117,115,115,115,113,115,116,115,116,116,115,115,113,113,114,116,117,116,117,117,117,115,115,115,116,117,118,118,119,118,117,116,117,116,117,116,117,116,115,115,116,115,114,115,114,116,117,119,117,117,116,115,114,114,114,113,112,112,112,110,109,108,107,107,109,110,111,112,113,114,116,115,115,114,114,113,114,113,113,114,113,114,114,115,116,116,115,116,115,116,115,114,113,112,112,112,110,109,109,108,108,107,106,107,105,105,106,108,109,110,110,109,109,108,108,107,106,105,105,103,102,102,101,100,99,98,98,98,98,98,98,99,99,100,100,99,98,98,96,96,95,95,93,93,92,91,90,90,89,89,88,87,87,86,86,86,85,84,84,83,83,83,82,81,81,80,80,80,80,79,79,79,79,78,78,79,77,77,77,77,76,76,76,75,74,75,74,74,74,74,73,73,72,73,72,72,71,71,70,70,69,70,71,69,70,69,69,69,69,68,68,68,68,67,67,66,68,66,67,67,67,67,68,67,67,67,66,67,67,67,66,66,66,66,66,66,66,65,66,65,65,64,64,65,65,65,64,65,66,66,66,65,66,66,66,66,66,66,66,67,66,66,66,66,66,66,66,67,67,67,67,67,67,67,68,68,68,69,67,68,69,68,69,69,70,70,70,70,70,71,71,71,71,71,71,71,71,70,70,70,70,69,70,70,70,71,71,72,72,73,73,73,73,73,73,73,73,74,74,74,73,74,73,73,74,74,74,74,74,75,75,75,75,75,75,75,75,76,76,76,75,76,76,76,75,75,75,75,75,75,75,75,75,75,75,75,76,75,76,76,76,76,75,75,75,75,75,75,75,74,74,74,75,76,75,75,75,74,75,74,74,74,75,75,74,75,74,74,74,74,73,73,73,73,73,73,73,72,73,72,72,72,72,72,72,71,71,71,71,70,70,70,71,70,70,70,70,70,70,70,70,70,70,70,70,69,69,69,68,68,68,68,68,68,68,68,68,67,67,67,67,67,67,66,65,65,66,65,65,65,65,65,64,65,65,65,65,65,64,64,65,64,65,64,64,64,64,64,64,64,64,63,63,63,63,63,63,62,62,62,62,62,62,62,62,62,62,62,62,62,61,61,61,62,61,61,61,61,61,61,60,60,60,60,60,60,60,60,59,60,59,60,60,60,60,61,60,61,60,60,60,60,60,60,60,59,59,60,61,60,61,60,60,60,61,60,60,60,61,61,61,61,61,60,61,61,60,60,60,60,60,60,60,61,60,60,60,60,61,60,61,60,60,60,60,61,60,60,60,59,60,60,60,60,60,60,60,60,60,59,59,59,59,59,60,60,59,60,60,60,59,59,59,59,57,57,57,57,57,57,56,57,57,57,57,57,56,57,57,56,56,56,56,57,57,57,58,57,57,57,57,57,58,57,57,57,57,57,57,57
11,11,11,11,10,10,10,10,10,10,10,10,10,10,10,10,10,11,11,11,11,11,11,11,10,11,11,10,10,11,10,11,11,10,11,11,11,11,10,11,11,11,11,11,10,11,11,10,10,11,10,11,11,11,11,11,11,10,11,11,11,11,10,11,11,10,10,11,11,11,11,11,10,11,10,11,11,11,11,11,11,11,10,11,11,11,11,11,10,10,10,10,10,10,11,11,11,11,11,11,11,10,11,11,11,11,11,11,10,11,11,10,11,10,10,10,11,11,10,10,11,10,10,11,11,11,11,11,11,11,11,10,10,11,11,11,11,11,10,11,11,11,11,10,10,11,11,11,11,11,10,11,11,11,10,11,11,11,11,10,10,10,11,11,11,11,11,10,11,11,11,11,11,11,10,10,10,11,11,11,11,11,11,11,11,10,11,11,11,11,11,11,11,11,11,11,11,11,11,11,11,11,11,11,11,11,11,11,11,10,11,11,11,11,11,11,10,10,11,11,11,11,11,11,11,11,16,26,33,36,41,46,47,48,48,48,49,49,50,48,49,49,49,49,54,59,60,65,67,68,67,68,68,70,70,71,74,84,90,92,97,102,109,110,109,116,118,116,120,123,125,125,124,122,121,120,120,117,116,116,115,113,112,110,109,108,108,110,109,107,105,111,115,123,124,124,125,125,125,129,130,131,130,131,129,128,126,128,127,128,131,133,139,142,142,144,142,140,139,140,138,143,154,164,166,170,166,167,169,181,209,228,240,239,248,246,254,269,281,288,306,317,319,329,332,354,361,356,356,372,390,432,482,488,498,493,504,515,510,528,532,535,546,566,583,615,615,618,618,608,603,601,609,610,626,665,694,690,711,741,766,760,769,775,770,778,771,773,773,784,782,768,762,761,770,797,796,791,780,766,754,758,758,770,781,774,763,752,743,738,730,718,713,721,723,711,704,695,681,669,656,649,640,637,625,619,636,631,622,630,631,624,624,619,607,600,600,591,583,571,567,557,549,539,532,521,511,504,503,496,492,487,486,486,491,488,479,471,461,452,442,433,424,415,407,400,391,385,380,372,365,357,353,346,339,331,325,318,318,315,309,303,297,291,287,281,278,277,273,268,262,257,252,247,242,237,233,229,225,221,223,222,219,215,212,208,204,201,198,194,191,189,186,183,180,178,175,173,170,168,166,164,162,160,158,155,154,152,149,146,148,151,149,147,146,144,144,142,141,140,139,138,138,139,137,136,135,134,133,132,131,130,129,128,128,127,127,125,125,124,123,123,122,120,120,119,118,117,117,116,115,115,114,114,114,113,112,112,112,111,110,110,109,109,108,107,106,106,106,105,105,104,104,103,102,102,101,100,99,98,98,97,96,95,94,93,93,92,91,91,90,90,90,89,88,88,87,86,86,86,85,84,84,84,83,82,83,82,83,82,82,81,80,79,79,79,77,77,76,75,74,74,74,73,72,71,71,70,70,70,69,68,68,68,67,67,66,65,65,64,64,63,64,62,62,62,61,61,60,60,60,59,59,59,59,58,57,57,57,57,55,55,54,54,54,54,53,52,52,52,51,51,51,51,50,50,49,48,48,48,47,47,46,46,46,45,45,45,44,43,43,43,43,42,42,42,41,40,40,40,39,39,39,38,38,38,38,37,36,37,36,36,36,36,35,35,34,34,33,34,33,33,33,32,32,31,31,31,30,31,30,30,30,29,29,29,28,28,28,27,28,28,28,27,27,26,27,27,26,26,26,25,25,25,25,25,24,24,24,24,24,24,24,24,24,23,23,22,23,23,23,23,22,22,21,21,21,21,21,20,21,20,20,19,20,19,20,20,20,19,19,19,19,19,18,19,18,18,18,18,18,18,18,18,18,17,17,17,17,17,17,16,17,17,16,16,16,16,16,16,16,16,16,16,15,16,16,16,15,15,16,15,16,16,15,16,16,15,16,15,15,15,15,15,14,14,15,14,15,14,14,14,14,14,14,14,14,14,14,14,14,14,14,14,14,14,14,14,13,13,13,14,13,13,13,13,13,13,13,13,13,13,13,14,14,14,13,13,13,13,13,13,14,13,13,13,13,12,13,12,13,13,13,13,13,12,13,14,13,13,13,13,13,13,13,13,13,13,13,12,13,13,13,13,13,13,13,13,13,13,12,13,12,12,12,12,12,12,12,12,12,12,12,12,12,12,12,11,11,11,11,11,11,11,12,12,12,12,11,12,12,12,11,12,12,12,12,11,11,12,12,11,12,12,12,12,11,11,12,11,12
58,58,58,57,57,57,57,57,58,58,58,57,57,57,58,57,58,58,57,58,58,58,58,58,58,59,58,58,58,58,58,58,58,58,58,59,58,58,57,58,58,58,58,58,58,58,59,58,58,58,59,57,58,58,58,58,59,59,59,59,58,59,59,58,58,58,58,58,58,58,59,58,58,58,59,57,58,58,58,58,57,58,58,58,58,57,57,57,57,58,58,58,57,57,58,58,57,58,59,58,58,58,59,58,58,59,58,58,58,58,58,58,57,58,57,57,58,57,57,57,57,57,57,57,57,57,57,57,57,57,57,57,57,57,57,57,57,57,57,57,57,57,57,57,57,57,57,57,57,57,58,58,59,58,58,58,58,58,58,58,59,59,59,59,59,59,60,59,60,59,60,60,61,60,61,61,61,61,61,61,62,62,62,62,62,62,61,62,61,61,62,62,62,63,62,63,64,64,64,64,65,66,67,67,68,67,67,67,67,67,67,67,67,67,67,66,67,66,66,67,68,68,68,68,68,68,68,67,68,68,68,68,68,68,68,67,67,67,68,68,69,70,69,70,70,71,72,71,71,71,70,70,69,69,69,69,68,68,68,67,68,68,67,68,67,67,67,67,67,68,67,67,67,66,66,67,66,67,67,65,66,65,66,65,65,66,67,66,66,66,67,66,66,66,66,66,66,66,66,66,66,66,65,65,67,66,67,66,66,66,66,66,67,66,65,65,66,66,66,67,67,67,68,67,68,70,72,72,72,74,74,75,76,78,80,80,81,81,81,81,82,81,81,80,81,84,85,86,86,86,86,87,87,91,92,91,92,92,92,93,93,95,94,94,93,94,93,93,92,92,91,92,93,93,93,94,95,95,96,96,95,96,96,95,97,95,95,95,95,95,97,96,96,95,95,95,97,102,102,102,101,101,101,102,101,104,107,106,107,107,107,106,106,107,109,108,107,107,108,107,106,105,105,105,105,105,104,106,107,108,107,108,107,106,107,108,107,106,107,107,107,106,105,107,106,107,108,108,108,108,108,107,108,108,109,110,110,109,109,110,109,108,108,109,109,110,110,110,109,109,108,108,109,108,108,107,108,107,107,107,107,108,107,107,105,105,105,105,105,104,105,105,105,104,104,105,105,105,105,105,104,103,103,104,103,104,105,103,104,104,104,104,103,104,104,103,103,102,102,101,100,99,99,97,97,96,95,94,94,94,93,93,92,92,91,92,92,93,94,95,97,98,100,100,101,100,99,98,98,97,97,96,95,95,94,94,94,93,92,91,91,90,90,89,89,87,87,87,86,86,85,85,85,85,84,84,84,83,83,83,82,82,82,82,82,83,82,82,83,82,82,81,81,80,79,79,78,78,77,77,77,77,77,77,76,77,76,76,75,75,75,74,74,74,74,73,73,72,72,72,71,71,71,71,71,71,72,73,74,74,74,73,73,73,73,73,74,74,73,74,73,73,73,72,72,71,72,71,71,71,70,70,70,69,70,70,70,70,70,70,70,70,69,69,69,69,69,68,68,68,68,69,68,68,68,68,68,68,68,69,70,71,72,73,73,73,73,73,74,74,73,73,73,73,73,73,74,74,75,76,75,77,76,77,77,77,77,77,77,77,77,77,76,76,77,77,77,78,79,78,78,78,79,78,79,79,78,79,79,80,80,81,81,81,81,81,80,81,81,81,80,81,81,82,82,83,83,83,83,83,83,83,83,82,83,83,83,83,83,83,82,82,82,82,82,82,83,82,82,83,82,82,82,82,81,82,81,81,81,82,81,81,81,82,82,82,82,83,82,82,82,82,82,82,83,82,82,82,83,83,83,83,82,82,82,81,81,81,80,80,81,81,80,80,80,79,79,80,80,80,81,81,80,81,81,81,82,82,83,82,81,82,82,82,81,81,80,80,80,80,80,80,80,79,79,79,79,79,79,79,79,79,79,78,77,77,77,77,77,77,78,77,77,77,76,76,77,76,76,77,77,77,76,76,76,76,76,75,77,77,76,76,76,76,76,76,75,76,76,76,76,76,76,76,76,76,76,75,75,75,74,74,74,74,73,73,72,72,72,72,72,73,72,72,73,72,73,72,72,72,72,72,71,71,71,70,70,70,69,69,69,68,68,68,69,68,67,67,67,67,68,67,67,67,67,67,66,66,67,67,67,67,67,67,67,67,66,66,66,65,66,65,65,71,70,70,71,71,70,70,70,70,70,70,70,71,71,71,71,71,71,70,71,72,72,73,72,72,72,72,72,72,72,72,72,72,72,72,72,73,72
12,11,11,12,11,11,12,11,11,12,12,12,11,11,12,11,11,11,12,11,12,12,11,12,12,12,11,12,11,11,11,12,11,12,11,11,11,12,11,11,11,12,11,11,11,11,11,12,12,11,11,11,11,11,11,11,11,11,11,10,11,11,11,11,11,11,11,11,11,11,11,11,11,11,11,12,11,11,10,11,11,11,11,11,11,11,11,11,12,11,11,11,11,11,11,11,11,11,11,11,11,11,11,11,11,11,11,11,11,11,11,11,11,11,11,11,11,11,11,11,11,11,11,11,11,11,11,11,11,11,11,11,11,11,11,11,10,11,11,12,12,12,12,12,12,12,12,13,21,30,37,39,46,51,51,49,49,49,53,54,55,55,54,53,56,60,61,60,63,66,69,72,70,70,72,71,70,69,69,71,77,79,78,78,78,80,79,82,83,82,81,85,89,94,93,93,94,101,104,104,106,106,105,103,102,100,100,100,101,101,100,103,104,105,109,110,109,111,111,109,107,106,106,106,106,110,122,126,131,138,140,141,140,140,137,138,147,153,154,164,166,165,162,168,169,169,167,168,174,178,192,203,206,212,227,241,251,252,251,261,265,266,263,264,278,280,295,323,342,343,346,360,360,359,371,373,374,374,410,432,436,434,441,441,441,439,433,429,432,434,458,475,475,474,469,466,456,465,475,469,465,473,467,474,493,532,549,565,556,547,537,526,523,527,530,538,554,555,545,545,539,536,571,588,593,602,594,583,572,581,584,581,581,613,643,646,666,669,687,683,687,689,694,685,677,664,655,646,640,636,631,640,641,641,641,628,621,620,608,597,590,581,570,560,555,546,535,525,530,527,530,526,518,508,499,497,494,488,482,477,472,476,501,499,508,505,495,492,481,472,465,456,446,438,430,421,414,406,398,390,383,376,373,366,358,350,344,337,330,325,320,316,310,303,298,293,289,282,278,275,272,267,264,259,255,249,245,243,239,234,230,225,221,220,218,215,212,210,209,206,204,205,203,199,197,195,192,189,186,184,183,181,179,177,176,174,172,171,168,166,164,162,162,160,158,158,157,155,153,152,151,150,147,146,146,146,145,144,142,141,140,140,140,139,138,138,136,136,136,134,134,133,133,132,132,131,129,128,127,128,127,126,126,125,124,123,122,122,121,120,119,119,117,117,116,115,114,113,113,112,111,110,109,108,108,107,106,105,105,104,103,102,101,100,99,99,98,97,97,96,96,94,93,92,91,91,90,90,90,89,89,88,87,87,86,85,84,83,83,82,83,81,80,80,79,77,77,76,76,75,75,74,74,74,74,73,72,72,71,71,71,69,70,69,68,68,68,66,66,66,66,65,65,65,65,64,63,63,62,62,61,62,61,61,61,61,60,60,59,59,58,58,58,58,57,57,57,56,56,55,55,55,54,54,53,54,53,53,52,52,51,52,51,51,50,50,50,49,49,48,49,48,48,47,48,46,46,45,45,45,45,45,45,44,44,44,43,44,43,43,43,42,42,42,41,41,41,40,40,39,39,39,38,38,39,38,38,38,37,38,38,37,37,37,36,36,36,36,35,35,35,35,34,34,33,33,33,32,32,32,32,32,31,31,31,30,30,30,31,30,30,30,30,29,29,29,29,29,28,29,28,28,27,27,27,27,27,27,26,26,26,26,26,27,26,25,25,26,25,24,25,25,24,24,24,24,25,24,24,24,24,24,24,23,23,24,24,24,23,24,23,23,23,23,22,22,23,22,22,22,22,22,22,22,21,22,21,22,21,21,21,22,21,21,21,20,21,20,20,20,20,20,20,20,20,20,20,19,19,19,19,19,20,20,20,19,19,20,19,19,20,19,19,19,19,19,19,19,18,18,18,18,18,19,17,18,18,17,18,18,18,18,17,17,17,18,17,18,17,17,17,17,18,17,17,17,17,17,17,17,16,17,16,17,16,16,17,17,17,17,17,17,17,17,16,16,16,17,16,16,17,17,16,17,16,16,17,16,17,16,16,16,17,17,17,16,16,16,16,16,16,16,16,16,15,16,15,16,16,16,17,16,16,16,17,16,17,16,16,16,16,16,17,16,16,16,16,16,17,16,16,16,16,16,16,16,16,15,16,16,16,16,16,16,15,16,16,16,16,16,17,17,16,17,16,17,17,17,17,17,17,17,17,17,17,17,17,17,16,17,16,12,12,11,11,12,12,12,12,12,12,11,12,12,11,12,11,12,12,11,12,12,12,12,11,12,12,12,12,12,12,11,11,12,12,12,12,12,12,12,12
71,71,72,73,73,73,73,73,73,72,71,71,72,72,73,73,72,73,74,76,76,76,76,76,76,77,77,77,77,77,77,77,77,76,76,77,78,78,77,78,78,78,78,77,77,77,78,79,79,79,80,79,79,80,80,80,81,80,80,81,81,81,81,80,80,80,80,79,80,79,78,79,78,77,77,77,77,77,77,76,76,76,76,76,76,76,76,75,75,75,74,76,76,76,76,76,76,76,75,74,75,75,75,74,75,75,75,75,76,77,76,76,76,76,76,76,76,75,76,75,75,75,75,74,74,74,73,73,73,72,73,73,72,72,71,72,71,72,72,72,72,72,72,72,71,71,71,71,70,69,70,70,70,70,69,69,69,69,68,68,68,68,68,68,68,67,68,67,67,67,67,66,66,66,66,66,66,65,65,65,65,65,65,65,65,65,64,65,65,64,64,64,64,64,65,64,65,65,65,64,64,64,64,64,64,63,63,64,65,64,65,64,65,64,64,64,63,64,64,64,64,65,66,68,69,70,71,71,72,73,73,73,73,74,73,73,73,73,73,72,73,73,73,73,73,73,73,74,74,73,74,73,74,74,73,72,74,74,74,74,76,76,76,76,76,78,79,78,79,79,82,82,82,81,81,83,84,84,84,84,83,85,86,86,85,87,88,92,92,93,94,95,97,98,98,100,98,100,101,101,101,101,104,104,103,103,102,103,106,106,110,109,109,108,107,106,106,106,106,105,107,107,108,107,107,109,112,111,112,112,111,111,111,113,114,113,119,119,120,119,120,121,123,122,123,125,125,126,125,126,126,126,129,128,127,127,127,128,128,128,128,128,128,126,125,124,127,126,126,128,128,128,128,127,127,128,128,127,127,127,126,125,124,125,127,126,125,125,125,126,126,126,126,126,125,125,125,125,126,126,126,126,128,128,128,127,125,124,124,124,123,123,123,122,121,122,122,120,121,122,122,121,121,119,120,119,117,115,115,115,114,115,115,115,115,117,116,117,116,116,116,115,114,113,112,111,111,109,110,110,109,109,108,108,108,108,108,107,106,106,105,105,104,103,102,102,102,101,100,100,101,99,100,100,100,100,99,98,98,98,99,99,99,98,98,98,98,99,99,100,100,101,100,101,100,100,99,99,100,100,101,100,101,99,99,98,98,97,96,95,96,95,95,95,94,93,92,92,91,91,90,89,88,88,87,87,88,90,94,98,99,100,98,98,99,101,101,102,102,102,101,101,99,100,100,100,103,106,109,109,108,107,108,109,111,112,112,113,113,112,112,113,113,115,116,117,116,115,114,113,111,111,111,111,112,113,113,114,113,112,111,110,109,108,107,106,105,104,103,102,102,102,101,101,101,102,102,101,102,102,102,101,101,100,101,103,105,107,108,108,107,107,106,105,105,104,103,105,108,110,111,111,110,109,108,108,107,108,107,108,107,106,105,104,103,103,104,104,106,107,108,108,108,109,110,109,109,108,107,106,104,104,103,103,104,104,105,105,105,105,105,105,105,105,105,105,104,104,105,106,107,107,106,105,104,103,102,104,106,107,108,109,108,108,108,108,108,108,109,110,110,110,110,110,110,110,110,111,111,111,110,111,111,111,109,110,109,109,109,109,109,110,110,109,110,110,110,110,110,110,110,109,109,108,108,108,108,108,108,108,108,107,107,107,107,106,107,107,108,107,106,106,106,105,105,106,105,104,104,104,104,104,105,104,104,104,104,104,103,103,102,102,101,101,101,101,101,101,101,101,100,101,100,99,99,99,99,98,98,98,98,98,98,98,98,98,98,98,97,97,96,97,96,96,96,95,95,95,95,95,94,93,93,93,92,92,92,92,91,90,90,90,90,89,89,88,87,87,87,87,86,86,86,86,86,86,86,87,86,85,85,85,85,84,84,84,84,83,83,83,83,83,82,82,82,82,83,82,81,81,80,80,80,79,78,79,78,78,77,78,77,77,77,76,76,76,76,76,75,75,75,74,74,74,73,73,73,72,72,72,71,71,71,71,71,70,71,71,71,71,70,71,70,70,70,70,70,70,71,70,70,70,70,69,70,69,69,69,68,68,68,68,68,67,67,67,67,68,67,67,67,67,67,67,66,66,66,66,66,65,66,66,65,65,65,64,64,64,64,64,64,64,63,63,64,63,63,63,63,62,62,62,62,62,62,61,61,61,61,61,61,68,68,69,69,69,68,69,68,69,69,69,68,68,68,68,68,68,68,69,69,68,69,69,69,69,68,68,68,68,68,69,68,68,68,69,69,69,69,68,68
