11,11,11,11,11,11,11,11,11,11,11,11,11,11,11,11,11,11,10,11,11,11,11,11,11,11,11,11,11,11,11,11,11,11,11,11,11,11,11,10,11,11,11,11,11,11,11,11,11,11,11,11,11,11,11,11,11,11,10,11,11,11,11,11,10,11,11,11,11,11,11,11,11,11,11,11,10,11,12,11,11,11,11,11,11,11,10,11,11,10,11,11,11,11,11,11,11,11,11,11,11,11,11,11,11,11,11,11,11,11,11,10,11,10,10,10,11,11,11,11,11,11,11,11,11,11,11,11,11,11,11,11,10,11,10,11,11,11,11,11,11,11,11,11,11,10,11,11,11,11,11,10,11,12,10,11,11,11,11,11,11,11,11,11,11,11,11,11,11,11,11,11,11,11,11,11,10,11,11,11,11,11,11,11,11,11,11,11,11,11,10,10,11,11,11,11,11,11,11,11,12,11,11,11,11,11,11,11,11,10,10,11,11,11,11,11,11,10,10,11,11,10,10,11,11,11,11,11,11,11,11,11,11,11,11,11,11,11,10,11,11,11,11,11,11,11,11,11,11,11,11,10,11,10,11,11,11,11,11,11,11,10,11,11,11,11,11,11,11,11,11,11,11,11,11,11,11,11,11,11,11,11,11,11,11,11,11,11,11,11,11,11,11,11,11,11,11,10,10,11,11,10,11,11,10,11,11,11,11,11,11,11,11,11,11,11,11,11,10,10,10,11,11,12,11,11,11,11,10,10,11,11,11,11,11,11,11,11,11,10,11,11,11,11,11,11,11,11,10,11,11,10,11,11,11,10,11,11,11,11,10,10,11,11,11,11,11,11,11,11,11,11,11,10,11,11,11,11,11,11,11,10,11,11,11,11,11,10,11,11,11,11,11,11,11,10,11,10,11,11,10,11,11,11,10,12,11,11,11,11,11,11,11,11,10,10,10,11,10,10,11,11,11,11,11,11,11,11,11,11,11,11,12,12,11,12,11,12,12,11,13,11,12,12,11,11,12,11,12,12,12,12,13,13,14,14,15,14,14,14,14,14,14,14,14,15,15,15,15,14,15,15,15,15,16,16,18,19,20,19,20,20,20,20,20,19,20,20,21,22,23,24,26,26,25,26,27,27,28,30,29,29,29,29,28,29,30,28,29,28,30,30,30,31,30,31,30,30,31,31,30,30,30,30,29,31,31,31,31,31,30,31,33,35,34,35,39,38,38,37,37,36,37,35,36,35,34,34,34,34,35,35,36,37,37,37,37,37,37,37,37,36,37,36,36,35,35,35,35,37,40,40,39,39,40,39,39,39,39,38,40,40,40,40,42,45,44,43,42,43,43,42,41,41,41,41,40,41,43,42,44,43,44,43,42,42,41,41,41,41,41,41,43,43,42,42,42,43,43,42,41,41,42,42,41,41,41,41,41,41,41,41,42,41,41,43,42,43,43,43,42,42,42,42,43,44,45,44,45,44,44,48,55,57,57,63,72,75,74,75,78,82,82,81,80,79,82,83,82,81,82,81,80,80,79,77,78,76,76,77,76,75,75,74,72,71,70,68,67,67,67,68,66,65,65,64,63,63,62,61,59,59,58,56,56,55,55,54,53,53,54,53,52,52,52,52,52,52,54,55,54,53,53,52,51,51,50,50,49,48,48,49,50,50,51,53,53,53,52,51,50,51,51,51,49,49,49,48,48,46,46,45,47,46,46,45,45,45,43,42,43,42,42,43,42,42,42,41,41,42,43,45,45,44,44,43,42,42,41,41,41,41,41,40,39,38,38,37,37,38,38,41,42,43,42,41,41,40,39,39,39,40,39,38,37,37,38,38,37,37,37,36,36,34,34,33,33,33,32,32,31,31,30,31,31,30,32,33,35,35,34,34,33,33,33,34,34,33,33,34,35,34,34,34,34,33,33,32,32,31,32,33,32,33,33,31,31,31,31,31,33,33,33,32,32,32,31,31,30,30,29,29,28,28,29,28,28,27,28,29,29,28,29,28,29,29,28,28,27,28,28,29,28,28,27,28,28,28,28,27,28,27,26,26,27,26,26,26,25,26,27,29,30,30,30,29,28,28,27,28,27,28,28,28,27,26,26,26,26,25,25,25,25,24,23,24,23,23,23,22,22,23,23,23,23,23,23,23,23,23,21,22,21,22,21,21,21,21,20,21,20,20,20,20,20,20,19,20,20,19,20,20,21,21,21,20,21,21,20,20,20,19,20,19,19,20,19,19,18,19,19,18,18,18,18,18,18,15,15,15,15
56,55,55,55,55,55,55,55,55,55,55,55,55,56,56,56,56,56,56,56,56,56,55,55,56,56,55,55,55,54,55,55,55,55,55,55,54,55,54,56,55,55,56,56,56,56,55,56,56,55,56,55,55,55,55,55,55,55,55,54,55,55,55,55,55,55,55,55,55,55,55,54,56,56,56,56,55,55,55,55,55,55,55,55,55,55,55,55,55,55,55,54,55,56,55,55,55,55,55,55,54,55,56,55,56,55,55,55,56,56,55,55,56,56,55,55,55,56,55,56,56,56,56,56,56,56,56,55,56,55,55,56,55,56,55,55,55,56,56,55,55,56,55,55,56,56,55,56,56,56,56,56,56,56,56,56,57,56,57,56,57,57,57,57,57,57,57,57,57,57,57,57,57,57,57,57,57,57,57,57,57,57,58,58,58,58,58,58,59,58,58,58,57,58,58,58,58,58,59,59,58,59,59,59,59,59,59,59,59,59,60,60,59,59,60,60,59,59,59,59,60,59,59,60,59,60,60,60,60,60,60,60,60,60,60,60,60,60,60,60,59,60,60,59,60,60,60,60,60,60,60,61,61,60,61,60,59,60,60,60,61,60,60,61,60,61,61,60,61,61,61,61,60,61,61,61,61,62,62,62,61,61,62,61,60,61,60,60,60,60,60,61,60,60,61,60,60,60,61,61,61,61,61,61,61,61,62,61,61,61,61,61,60,60,61,60,60,61,61,60,60,60,60,60,60,60,60,60,60,61,60,60,60,60,60,60,59,60,59,60,60,60,60,60,60,61,60,60,61,60,61,61,60,60,60,61,60,60,61,60,60,60,61,60,60,60,61,60,61,61,61,61,61,60,61,61,61,61,61,61,61,62,61,61,61,61,62,61,60,61,61,61,61,62,62,62,62,61,61,61,62,63,66,70,72,72,73,77,81,81,84,84,86,95,106,112,117,120,127,139,150,154,153,153,157,160,160,166,184,198,203,231,254,258,263,259,255,255,259,273,273,272,278,299,307,308,304,301,310,310,306,301,308,326,339,339,344,366,363,371,375,378,393,392,391,393,399,402,402,396,397,404,401,403,424,433,444,466,482,487,505,525,534,543,543,576,604,614,625,625,649,640,660,738,739,744,767,805,842,844,865,862,852,838,840,839,845,836,829,826,824,832,843,862,854,859,855,850,854,860,852,877,880,873,883,882,892,887,879,869,892,891,885,887,891,936,945,957,949,939,940,925,910,900,897,942,970,967,979,982,971,961,980,981,978,971,963,950,935,928,924,909,906,910,948,945,944,935,933,934,920,930,930,917,904,887,895,892,882,871,877,872,870,887,899,905,906,898,914,917,903,887,876,860,850,838,839,829,838,876,879,909,933,929,927,912,899,886,900,921,923,915,930,941,929,917,901,894,880,866,852,838,838,836,830,828,813,801,790,802,812,846,849,850,852,846,848,864,870,855,839,830,818,812,805,804,794,784,784,772,761,761,760,797,819,817,806,810,813,799,785,778,765,756,745,745,739,746,764,761,784,799,817,848,848,862,856,852,845,840,837,839,828,823,810,800,791,788,797,793,788,797,794,824,828,823,811,801,788,780,769,758,760,759,756,745,736,733,772,795,832,848,838,839,836,822,812,799,792,782,772,765,757,746,738,734,725,716,706,695,691,692,685,694,689,680,671,668,671,664,656,656,648,659,658,655,655,662,661,654,654,652,648,642,642,631,620,609,599,593,606,605,599,598,607,626,626,620,620,628,649,653,645,643,640,632,622,618,611,604,596,596,603,597,591,583,574,570,576,587,600,610,665,659,646,636,626,616,610,602,593,583,577,578,574,567,564,561,561,574,571,574,570,565,556,550,543,541,542,546,552,567,564,555,549,550,544,552,559,555,552,552,558,559,560,554,556,555,549,544,541,545,544,544,538,529,521,514,524,534,528,529,556,580,578,577,569,559,550,557,559,560,551,546,542,533,524,516,509,501,496,495,490,489,489,498,491,489,490,487,482,476,472,469,465,459,455,448,442,448,445,440,451,459,476,498,515,545,538,533,524,516,507,499,491,490,489,489,482,482,486,502,499,492,483,477,471,466,468,467,475,476,490,487,480,473,466,459,453,448,443,438,433,432,431,427,422,419,413,413,422,446,451,466,490,485,480,472,464,457,449,441,435,433,427,420,414,412,411,413,410,408,406,400,395,394,389,386,384,381,395,415,416,424,436,441,435,431,424,419,412,405,400,394,388,382,382,379,381,376,373,369,367,368,368,366,361,55,56,56,56
15,15,15,15,16,15,15,15,16,15,16,15,16,15,15,15,15,15,15,15,15,16,15,15,15,15,15,15,15,15,15,15,15,15,15,15,15,16,15,15,15,16,15,15,15,15,15,15,16,15,16,15,15,16,15,15,15,15,15,15,16,16,16,16,15,16,16,16,16,16,16,16,16,16,16,16,16,16,16,16,16,16,16,16,16,16,16,16,16,16,16,16,16,16,16,16,17,16,16,16,17,17,16,16,16,16,16,16,16,16,16,16,16,16,16,16,16,17,17,17,16,17,17,17,17,17,18,17,17,18,18,18,18,17,18,18,17,17,18,17,17,17,18,18,18,18,18,19,19,18,19,19,19,19,19,18,19,19,19,20,19,19,20,20,20,20,20,19,20,20,21,20,21,20,20,20,20,20,20,20,20,20,21,21,21,21,22,22,21,21,21,21,21,21,21,21,21,21,21,21,21,22,22,22,22,21,22,22,22,22,22,22,22,22,22,22,22,22,22,22,23,22,22,22,22,22,22,22,23,22,22,22,22,22,22,23,22,23,23,23,23,23,23,22,22,22,22,22,21,23,22,22,22,22,21,22,22,23,22,22,23,23,23,23,23,23,24,23,24,23,24,24,24,24,25,25,24,24,24,25,24,24,24,25,24,25,24,24,25,24,24,24,25,24,25,24,24,24,24,24,24,24,25,25,25,25,25,26,25,26,25,25,25,24,25,26,25,25,25,25,25,25,24,24,25,25,25,26,25,26,25,25,26,27,26,26,26,27,27,27,27,27,27,27,27,27,28,27,27,27,27,27,27,26,27,26,27,26,26,26,27,26,27,27,27,27,27,27,27,27,27,28,27,27,26,27,26,26,26,26,26,26,26,26,27,27,26,26,27,26,26,27,26,26,26,26,26,26,26,26,26,25,25,25,25,24,24,24,24,25,24,25,24,25,24,24,24,24,24,23,24,25,24,23,23,24,23,24,23,24,23,24,24,24,24,24,23,24,23,23,23,23,23,23,23,24,23,23,24,25,23,23,24,24,24,24,24,24,24,24,24,24,24,24,24,24,24,25,24,24,24,24,25,24,24,24,24,25,24,24,24,24,24,24,24,24,24,25,25,25,25,24,24,24,25,25,25,24,25,24,24,24,25,24,24,24,24,24,24,23,23,23,24,24,24,24,23,24,23,23,23,23,23,23,23,23,24,23,23,23,23,24,23,23,23,24,23,24,23,24,23,23,24,24,23,24,23,24,24,24,24,24,23,24,23,23,23,23,24,24,24,23,24,24,24,24,24,24,25,25,25,25,26,26,26,25,26,27,26,25,26,25,25,25,25,24,24,25,24,25,25,25,25,25,25,24,25,25,26,25,25,25,25,26,25,26,25,25,25,25,26,25,25,26,25,25,25,25,25,25,24,25,25,25,24,25,25,25,25,24,25,25,25,26,25,26,26,27,26,25,25,25,25,25,25,24,25,25,25,25,25,25,26,27,26,26,26,26,26,26,26,27,27,27,26,27,26,27,26,26,27,26,26,25,26,26,26,26,26,26,26,26,26,26,26,26,25,25,25,25,26,25,25,25,26,26,25,25,25,26,25,26,26,26,25,25,25,25,25,25,26,26,26,26,26,26,26,25,26,26,26,26,26,26,25,25,25,25,25,25,24,25,25,25,25,24,24,25,24,25,25,25,24,25,25,25,25,25,25,25,25,26,26,25,26,26,26,26,26,25,25,25,25,26,25,26,26,25,26,26,26,26,25,25,25,25,25,24,25,25,25,25,24,25,25,25,25,25,25,25,25,26,26,25,25,25,25,25,25,24,25,24,24,24,24,24,24,24,24,24,23,24,24,23,24,24,23,23,24,23,24,23,23,24,24,24,23,23,23,23,23,24,24,24,24,23,23,23,23,23,22,23,23,23,23,23,23,23,23,22,22,23,23,23,23,23,23,24,24,25,25,25,25,24,26,25,25,25,25,26,29,29,29,29,29,29,28,28,28,30,31,31,31,31,31,32,32,32,33,34,34,34,33,33,35,34,35,35,34,35,37,38,39,39,40,39,39,38,37,37,38,39,39,40,40,40,41,43,43,42,42,42,41,42,43,42,42,41,41,40,41,41,40,40,39,40,41,45,49,51,50,50,49,47,47,46,48,50,50,52,51,51,53,57,59,60,60,60,59,61,60,60,59,58,59,60,62,64,65,65,64,63,63,62,62,61,64,65,64,64,63,62,62,63,63,66,68,69,70,68,69,67,69,67,66,13,14,14,14,14,14
56,56,56,56,56,56,56,56,56,56,56,57,56,56,56,56,56,56,56,56,57,56,57,56,56,58,57,57,57,57,57,57,57,57,57,57,57,57,57,58,58,57,58,58,58,58,58,58,58,58,57,58,58,58,58,58,58,57,57,58,57,57,57,57,57,57,57,57,57,57,56,57,56,57,57,57,56,57,57,57,57,57,57,57,57,57,57,57,57,56,56,56,56,56,56,57,56,57,57,57,57,57,57,58,57,57,57,57,58,58,57,57,57,57,57,57,58,58,57,57,57,57,57,57,57,56,57,57,57,58,57,57,56,57,56,56,57,57,57,57,57,56,57,57,56,57,56,56,56,56,56,56,56,56,56,57,57,56,56,56,56,56,56,56,56,57,56,56,56,56,56,56,56,57,57,57,57,57,56,57,56,57,57,57,57,56,57,56,56,56,56,56,57,57,57,57,57,57,57,57,57,57,57,57,57,58,58,58,58,58,57,57,58,57,57,57,58,58,58,59,59,59,59,58,59,59,59,58,59,59,59,59,59,58,59,58,58,58,58,58,58,59,58,58,58,59,59,59,59,59,59,58,58,59,59,59,58,58,58,58,58,58,57,58,57,58,58,57,57,58,58,58,58,58,57,58,58,58,57,57,57,57,57,56,57,57,56,57,57,57,57,57,57,56,56,57,56,56,56,56,55,56,55,56,56,55,55,56,56,55,55,55,55,56,55,55,54,55,54,55,55,55,55,55,54,55,54,54,54,54,55,54,55,54,54,55,53,54,54,54,54,54,54,54,54,54,53,54,54,54,54,54,54,54,54,54,54,54,53,54,54,54,54,53,53,53,54,53,53,54,53,53,53,54,53,53,53,54,53,53,53,53,53,53,53,53,53,53,53,53,53,54,53,53,53,54,54,53,53,53,53,53,54,53,54,53,54,53,53,53,53,53,53,53,53,53,53,53,53,53,53,53,54,53,53,53,53,53,53,53,53,53,53,53,53,53,53,54,53,53,53,53,53,53,53,53,53,53,53,53,53,53,53,53,53,53,53,53,53,53,53,53,53,53,53,53,53,53,53,53,53,53,53,53,53,53,53,53,53,53,53,53,53,53,53,53,53,53,53,53,53,52,53,53,53,52,53,53,53,53,53,53,53,53,53,53,53,53,53,52,53,53,53,53,53,53,53,53,53,53,53,53,53,53,53,53,53,53,53,53,53,53,53,53,53,53,53,53,53,53,53,53,53,54,53,53,53,53,53,53,54,54,54,54,54,54,54,54,54,54,54,54,54,54,54,54,55,54,54,54,54,54,53,54,54,54,54,54,54,53,53,54,54,55,54,54,54,54,55,54,54,54,54,54,54,54,54,55,54,55,54,55,54,55,54,55,54,54,55,54,54,54,54,54,54,55,55,54,55,55,55,55,55,55,55,56,55,55,55,55,55,55,55,55,55,55,55,55,56,55,56,56,56,56,56,57,56,56,56,56,56,56,56,56,55,56,56,56,55,55,56,55,55,55,55,55,55,55,55,55,55,55,55,55,55,55,55,55,55,56,55,55,56,56,55,55,56,56,55,56,56,55,56,56,56,56,55,56,55,56,56,56,56,56,56,56,56,56,56,56,56,56,56,56,56,57,55,56,56,56,56,56,56,56,56,56,56,56,56,56,56,56,56,57,57,57,57,57,57,56,57,56,56,56,56,56,56,56,56,55,56,55,56,55,55,55,56,55,55,55,55,55,55,55,56,55,55,55,55,56,55,55,55,54,55,55,55,54,54,55,55,55,55,55,55,55,54,54,54,54,54,54,54,54,54,54,54,54,53,54,54,54,54,54,54,55,54,55,54,54,54,54,55,54,53,54,54,54,54,53,54,54,54,53,53,54,53,54,54,54,54,53,54,54,54,54,54,54,55,54,55,55,55,56,57,57,60,62,67,68,70,72,75,77,78,85,95,104,115,118,122,122,123,123,122,124,124,126,134,150,158,186,216,248,252,264,305,360,403,415,445,462,470,468,470,466,460,464,475,475,478,472,465,470,480,483,486,486,478,476,485,503,514,512,525,533,533,527,529,524,518,527,535,529,528,560,575,602,622,614,612,624,622,615,630,667,684,677,698,739,746,751,755,765,757,753,765,786,786,820,827,839,828,820,809,807,838,843,843,833,845,845,846,835,830,832,831,824,819,825,832,886,932,942,964,954,940,932,927,933,962,966,968,955,938,936,982,981,982,981,978,978,973,965,950,939,936,955,973,971,973,962,963,958,982,61,60,60,60,59,60
13,13,13,14,13,13,13,13,13,13,13,13,13,13,13,13,14,13,13,12,13,12,12,13,13,12,12,12,12,12,12,12,13,13,12,12,12,12,12,12,12,13,11,12,13,11,11,12,12,12,12,12,11,11,12,11,12,12,12,12,12,12,11,12,12,12,12,12,11,11,12,11,12,11,11,11,12,12,12,11,12,12,11,11,11,11,11,12,11,12,12,12,11,11,12,11,11,11,11,11,11,12,11,11,11,11,11,12,11,11,11,11,11,11,11,11,11,12,11,11,11,11,11,10,11,11,11,11,11,11,11,11,11,10,11,11,11,11,11,11,12,11,11,12,11,11,11,11,11,11,11,11,11,11,11,11,11,11,11,11,12,11,11,11,10,11,11,11,11,11,11,11,11,11,11,11,11,11,11,11,11,11,10,11,11,11,12,11,11,11,11,11,11,12,11,12,11,11,11,11,12,11,11,11,11,11,11,11,11,11,11,11,11,10,11,11,11,11,11,11,11,11,11,10,11,11,10,11,11,11,11,11,11,11,11,11,10,11,10,10,11,11,11,11,11,11,11,12,11,11,11,11,11,11,11,11,11,11,10,11,11,10,11,11,11,11,11,11,11,10,11,11,11,11,11,11,11,11,11,10,10,11,11,11,11,11,11,11,11,11,11,11,11,11,10,11,11,11,11,11,11,11,11,11,11,11,11,11,11,11,11,11,11,11,11,11,10,11,11,11,11,11,11,11,11,11,11,11,11,11,11,11,11,11,11,11,11,11,10,11,12,11,11,10,11,11,10,10,11,11,11,10,10,12,16,19,22,24,23,24,23,23,23,23,22,22,22,22,21,21,21,21,20,20,20,20,21,20,20,19,19,19,19,19,19,18,18,18,18,18,18,17,17,18,18,18,18,18,18,18,17,17,17,17,17,17,17,19,19,19,19,20,19,20,19,20,21,22,22,22,22,22,23,22,22,23,22,22,23,23,24,23,24,23,24,23,25,25,27,29,30,30,30,30,29,31,30,31,31,33,35,35,35,36,38,38,40,41,40,41,43,45,45,44,44,44,44,43,43,42,43,43,45,46,46,47,47,46,48,48,47,47,47,46,48,50,52,52,53,53,55,59,58,58,59,59,60,62,62,61,60,59,61,61,61,60,59,59,60,60,61,59,59,58,57,56,56,58,57,55,55,54,54,54,54,56,56,54,53,53,52,50,53,55,57,56,57,56,56,55,54,54,56,59,59,58,57,57,57,56,55,55,55,54,56,55,54,54,54,53,52,52,51,51,50,49,49,48,48,48,47,47,48,48,47,47,49,49,48,48,48,47,46,46,45,47,48,48,47,47,47,47,46,45,45,45,45,44,44,45,44,43,44,43,43,42,42,41,41,41,40,40,39,39,40,39,39,39,39,39,38,38,38,38,38,37,37,36,36,35,36,36,36,36,35,35,37,37,37,36,36,36,35,34,34,34,33,34,33,33,33,33,31,31,32,32,33,32,32,31,31,31,31,30,30,30,31,30,30,31,30,30,32,31,31,30,31,31,29,29,29,29,28,28,28,28,29,30,31,31,30,30,30,30,30,29,29,32,33,35,34,35,35,35,35,34,33,33,33,32,32,32,32,32,32,32,33,33,33,32,31,31,31,30,29,30,29,29,29,29,29,29,28,28,28,27,27,28,27,27,27,26,26,26,25,25,25,25,25,24,24,24,24,24,26,28,28,28,30,32,32,31,34,36,37,37,39,40,39,39,38,37,38,39,38,37,37,35,36,35,36,38,39,39,43,44,43,43,42,41,41,39,40,40,40,43,43,43,42,42,41,40,40,39,38,39,39,38,39,38,37,36,36,36,35,35,33,34,33,32,32,32,31,32,32,32,31,31,30,30,30,29,29,30,32,33,35,37,38,39,37,37,36,35,37,37,38,38,37,38,37,36,36,37,36,37,37,37,37,36,36,35,35,34,35,35,34,36,40,40,42,48,50,49,48,48,46,45,45,44,44,44,45,45,44,43,43,45,44,43,43,43,42,42,41,43,46,49,49,52,53,54,54,55,54,54,52,52,52,51,50,52,52,53,53,52,51,51,50,49,49,50,48,49,48,48,47,46,46,46,46,47,47,46,45,46,47,46,46,47,46,47,46,46,46,45,45,47,48,50,53,54,55,56,56,55,54,54,53,53,53,54,53,51,51,50,50,49,49,47,47,47,47,46,45,45,44,44,45,49,50,51,51,51,50,51,51,54,54,53,53,52,52,11,11,11,11,11,11,11,11
60,60,60,59,59,59,59,59,59,58,58,58,58,58,58,58,58,58,58,58,58,58,58,58,58,58,58,58,58,58,58,59,59,60,60,62,62,62,62,61,62,62,62,62,62,62,61,61,62,62,62,62,62,62,61,61,61,61,61,62,61,61,62,60,61,61,61,61,61,60,61,60,60,60,61,61,61,61,61,61,61,60,60,60,60,61,61,61,61,61,61,60,60,60,60,60,60,60,59,59,60,59,59,59,59,59,60,59,59,59,60,59,59,59,58,58,58,58,58,58,58,58,58,58,58,58,59,58,58,58,58,58,57,57,58,58,58,58,58,57,58,58,58,58,58,58,58,58,58,58,57,58,57,58,58,58,57,58,58,58,58,59,58,59,60,59,59,59,59,59,59,58,59,59,58,58,58,58,58,58,59,58,58,58,58,58,58,58,58,58,57,58,58,57,58,57,57,57,57,57,57,57,57,57,56,57,57,56,57,57,57,57,57,57,59,58,58,58,59,58,58,58,58,58,58,59,58,58,58,58,57,57,57,58,57,58,57,57,57,57,57,57,57,56,57,56,56,56,56,56,56,56,55,56,56,56,55,55,55,55,55,55,55,55,55,56,55,56,56,56,57,56,57,56,56,56,56,56,56,56,56,56,57,56,56,56,55,56,55,56,56,55,55,55,54,55,55,55,55,55,55,56,56,55,55,55,55,55,55,56,56,55,56,55,56,55,55,55,55,56,55,55,55,55,55,56,56,55,55,55,55,56,56,55,56,56,56,56,56,56,56,55,55,55,56,55,55,55,56,55,56,57,56,57,58,58,58,58,58,58,58,59,59,61,63,64,68,74,75,77,82,88,90,100,104,109,121,139,156,171,172,185,208,218,219,223,227,231,230,234,233,232,236,236,235,235,263,292,302,302,308,319,337,339,360,391,427,446,447,453,474,497,500,497,494,520,559,568,629,655,655,654,656,671,683,681,706,705,725,720,725,735,766,776,814,861,870,894,899,895,895,888,873,860,852,838,831,834,834,862,868,871,872,862,852,866,867,852,843,855,884,892,926,932,968,974,981,981,983,982,982,982,980,981,983,982,982,982,982,983,982,983,982,981,982,982,982,981,982,978,976,982,981,982,982,981,982,982,981,983,982,981,982,982,982,982,983,981,982,982,981,981,982,971,961,966,967,958,959,959,957,944,936,932,924,941,952,975,968,965,960,953,955,953,968,982,982,981,982,977,964,953,970,961,981,978,974,962,953,938,925,912,908,904,909,902,890,881,878,880,873,859,850,847,855,851,841,828,816,801,789,775,765,753,751,764,771,773,771,775,775,771,768,762,767,765,768,777,787,792,791,788,788,777,780,779,775,807,811,808,812,813,813,804,799,798,801,792,784,773,768,768,761,756,748,757,766,785,797,799,790,780,772,769,769,756,750,737,725,727,736,729,723,721,736,734,755,744,731,721,716,718,728,724,714,718,719,723,716,710,704,701,696,726,733,728,736,735,738,751,741,729,720,710,698,688,678,673,666,658,649,667,661,651,641,632,629,621,618,613,605,604,596,588,597,595,586,596,605,609,612,607,609,604,594,589,582,577,583,582,578,580,576,569,564,561,555,545,537,535,533,529,543,546,558,552,549,541,536,530,524,515,506,498,493,488,480,479,480,490,486,479,473,467,461,455,449,446,441,436,432,427,422,416,411,411,417,432,427,422,415,408,404,400,402,400,397,392,387,384,380,376,371,366,360,356,353,350,346,342,340,335,330,326,322,318,313,308,305,302,298,294,290,287,284,280,277,275,275,272,268,263,262,257,254,251,248,244,242,241,242,241,237,234,232,228,225,223,221,219,215,214,212,211,209,207,204,202,200,198,196,194,192,190,188,187,185,183,182,180,179,177,175,174,173,172,170,169,167,166,165,163,161,159,158,157,156,155,153,152,150,149,148,147,146,144,143,142,141,139,138,138,136,135,134,133,132,131,129,129,128,128,127,126,125,124,122,121,120,119,118,119,118,117,117,116,115,114,113,112,111,110,109,107,107,106,105,104,105,105,103,103,104,103,103,102,102,101,100,99,99,99,99,99,98,98,97,97,96,95,95,94,94,93,94,93,93,94,95,94,93,93,92,92,91,91,91,91,90,89,88,89,89,88,88,87,87,87,87,87,87,86,86,86,86,86,86,86,86,85,85,84,85,85,84,84,84,84,84,84,84,84,84,84,84,85,83,83,82,82,81,81,81,81,81,80,81,80,80,80,80,79,79,58,59,58,58,59,59,59,59
11,12,11,11,11,11,11,12,11,11,11,11,12,12,12,12,11,11,11,12,11,12,12,12,11,12,12,11,11,12,12,11,11,11,11,11,12,11,12,12,11,11,11,12,12,11,11,12,11,12,11,11,11,12,11,12,11,11,12,12,11,11,11,11,12,11,11,11,11,12,12,11,12,12,11,12,12,11,11,11,11,11,12,11,11,11,11,11,11,12,11,11,11,11,11,11,11,12,11,11,12,12,12,11,11,11,12,11,12,11,11,12,11,11,12,12,12,11,11,11,12,11,11,12,11,11,11,11,11,11,13,11,12,11,12,11,12,11,11,11,12,12,11,11,11,12,12,11,11,11,12,11,11,11,11,12,11,11,11,11,12,11,12,11,11,12,11,11,12,12,12,12,12,12,12,12,13,12,13,12,12,12,12,12,14,14,15,14,14,15,14,15,16,17,18,18,18,18,18,19,17,17,18,18,17,18,19,19,19,20,20,19,20,19,19,19,19,18,19,19,19,19,19,20,20,21,20,20,21,20,20,22,22,22,22,23,23,25,23,24,27,27,27,29,29,32,31,31,31,33,33,35,36,36,35,35,35,35,35,34,36,36,35,34,34,34,34,33,32,33,33,36,37,36,36,36,35,37,37,39,38,38,37,37,37,36,36,36,36,37,36,35,35,36,37,38,38,37,37,37,37,37,38,38,38,40,42,43,42,41,40,40,41,42,42,43,44,43,43,43,42,41,41,41,41,41,41,44,47,46,45,45,44,45,47,50,49,49,48,48,47,46,47,46,48,49,48,48,49,50,50,50,52,52,54,56,56,57,56,58,61,61,60,59,59,57,56,56,55,54,55,57,56,57,56,55,54,53,53,52,51,52,55,55,54,53,52,52,50,51,49,48,48,47,46,45,46,46,46,46,47,52,54,55,54,55,54,54,53,52,51,50,50,49,48,47,47,47,47,47,47,46,45,44,44,44,44,43,43,43,43,43,44,43,42,42,43,42,41,40,40,39,39,38,38,37,38,38,37,37,37,37,37,36,36,36,36,36,37,36,37,38,37,37,36,35,36,35,35,34,34,33,33,32,32,31,31,32,32,33,33,33,33,32,31,31,31,31,31,31,31,31,31,32,32,31,31,30,30,29,29,30,31,32,33,33,32,32,32,31,31,31,31,30,30,30,30,30,30,29,28,28,28,28,27,27,27,26,26,26,26,27,28,28,27,27,26,26,27,25,26,25,25,24,24,23,23,24,26,30,29,29,31,32,32,31,31,31,30,30,30,29,29,28,28,28,27,28,28,27,27,26,26,26,25,25,25,25,24,25,24,24,23,23,23,23,22,23,22,22,21,21,21,21,21,20,21,20,20,19,20,19,19,19,19,18,18,18,18,18,18,18,17,17,17,17,17,17,17,16,16,16,17,16,16,16,16,16,16,16,16,16,16,16,16,16,16,15,15,16,16,15,16,15,16,15,15,15,15,15,14,14,15,15,14,14,14,14,14,14,14,13,13,14,14,13,13,13,14,14,14,13,13,14,14,15,17,17,17,17,18,17,19,21,23,24,25,25,27,27,26,26,25,26,26,27,26,26,26,25,26,27,28,28,27,27,27,26,26,27,25,25,25,27,27,28,27,27,27,26,26,26,25,27,27,28,28,29,28,28,28,27,27,28,27,27,28,29,30,29,28,27,29,28,29,29,30,29,31,34,36,36,37,37,37,36,37,37,36,36,35,36,35,36,36,37,37,36,36,36,35,34,34,34,35,35,34,34,33,34,33,32,32,31,33,33,32,32,31,31,31,31,30,31,31,31,31,30,30,29,29,29,30,29,29,29,29,29,31,30,30,30,29,29,29,29,28,28,28,28,31,34,36,37,38,37,37,36,36,36,36,36,36,36,35,35,34,34,35,35,34,34,33,33,32,33,33,32,32,32,31,31,30,30,30,30,30,29,29,28,28,28,28,28,28,28,28,27,28,28,27,27,26,27,26,25,25,25,25,25,24,25,26,25,26,26,27,26,26,26,25,25,25,25,25,25,24,24,23,24,25,24,24,24,23,23,22,22,23,22,22,22,21,22,22,22,21,22,21,21,21,21,20,21,20,20,20,20,20,19,19,19,19,18,19,19,20,19,19,18,18,19,18,19,20,20,20,19,19,20,19,19,19,19,19,19,19,19,19,19,18,18,18,18,18,18,18,17,18,17,18,18,18,18,17,17,17,17,17,17,17,17,17,17,16,16,16,16,16,16,16,11,12,12,11,11,12,11,11,11,11
58,59,58,58,58,58,58,59,59,59,59,60,61,60,60,60,60,59,59,59,59,59,59,59,59,59,59,59,59,59,59,59,59,60,60,60,60,60,60,60,60,60,60,59,59,59,60,60,60,60,60,60,60,61,60,61,60,60,60,61,60,60,60,60,60,60,60,60,59,59,60,59,59,59,60,59,59,60,59,59,59,60,59,61,60,60,61,62,62,62,62,62,63,62,62,62,62,62,62,62,62,62,62,62,62,63,61,62,62,62,62,62,62,62,61,62,61,61,61,61,61,61,60,61,62,61,62,63,62,62,62,62,62,63,62,62,63,63,63,64,68,73,75,82,96,104,104,111,120,125,125,129,129,128,127,127,126,128,132,133,138,150,158,158,168,188,207,218,218,226,228,231,244,264,277,275,278,277,273,280,293,293,305,318,325,325,327,330,330,345,352,354,358,357,388,421,428,431,427,426,423,418,417,413,418,445,463,459,470,509,522,537,565,595,616,607,601,597,604,605,599,607,623,618,624,650,660,661,669,659,672,687,728,732,724,728,743,736,729,745,759,771,823,823,838,825,815,804,817,818,820,821,839,837,857,882,869,857,875,898,941,955,979,982,982,982,983,982,982,982,982,982,982,982,982,983,982,982,982,982,982,982,982,981,974,982,981,982,982,982,982,982,982,981,976,965,959,954,940,937,931,923,913,900,910,920,921,922,925,972,982,981,982,981,971,982,981,982,982,982,981,982,983,981,983,981,969,958,942,930,925,911,898,902,900,903,920,921,906,891,882,881,892,888,902,896,881,866,855,857,848,855,853,851,838,836,842,860,849,839,831,826,817,804,807,801,803,827,841,844,881,876,885,890,891,884,872,866,864,874,882,885,900,920,912,896,887,878,879,868,863,866,869,865,870,866,856,844,843,845,835,840,839,828,814,805,826,818,813,819,823,833,845,857,842,831,818,811,802,803,800,794,785,779,778,777,776,765,780,785,793,819,823,838,836,838,834,828,816,804,792,780,769,763,772,770,771,775,769,760,752,743,733,730,745,744,754,779,772,761,752,750,752,745,750,740,730,726,718,735,739,740,757,762,751,748,746,740,735,731,724,731,739,729,718,713,706,700,701,695,705,714,704,694,693,687,691,685,676,669,662,655,645,638,629,633,657,650,645,635,634,645,646,664,673,683,675,679,678,672,664,652,641,633,623,616,607,596,585,580,583,583,579,585,582,580,577,586,589,584,579,572,563,556,550,545,544,546,544,536,526,523,518,511,507,499,491,484,478,470,462,460,457,459,457,455,463,471,463,455,451,448,441,435,428,423,422,421,430,425,422,419,414,407,402,397,392,386,381,376,371,367,362,357,352,348,345,341,338,336,335,334,329,332,331,330,326,321,319,317,313,309,305,299,295,292,288,284,282,280,278,276,272,269,270,271,272,272,267,267,264,262,258,255,253,249,247,246,246,245,242,238,237,235,232,228,225,222,218,215,212,210,207,204,201,198,196,194,192,189,187,185,182,180,179,176,174,173,170,169,168,166,164,162,160,159,158,155,154,152,150,148,147,145,143,143,142,141,140,138,137,135,134,132,131,130,129,127,126,124,123,122,121,120,120,119,118,117,116,114,113,112,111,111,110,109,107,106,105,104,104,102,102,101,101,100,100,100,100,99,98,98,97,96,95,95,94,93,93,92,92,92,91,90,89,89,88,89,88,87,87,87,86,86,86,85,85,85,85,84,83,83,82,82,82,81,81,82,81,81,80,81,81,80,80,81,80,80,80,79,79,79,79,78,78,78,78,78,77,77,76,76,77,77,76,76,76,76,76,76,76,76,75,75,75,75,74,74,73,73,73,73,73,73,74,73,74,74,74,74,74,74,74,74,74,74,74,74,73,74,74,74,74,74,74,75,74,74,74,74,73,74,74,73,73,73,73,73,73,73,73,73,73,73,73,74,74,74,74,74,74,74,73,74,74,75,75,74,74,74,74,74,73,73,73,73,73,73,72,72,72,73,73,73,72,72,72,72,72,72,72,73,73,72,72,72,72,72,73,73,73,73,73,72,72,72,72,72,71,72,72,72,72,72,72,71,72,72,72,72,72,72,72,72,72,72,72,71,72,71,71,72,72,71,72,72,72,72,71,70,70,70,70,70,70,70,69,69,69,69,69,70,70,70,69,70,70,70,69,69,68,68,68,68,67,68,68,68,68,67,67,68,68,67,67,67,67,66,66,67,66,66,66,66,66,66,66,66,66,66,66,57,57,57,57,56,56,56,57,56,56
11,11,12,11,11,11,11,11,11,11,11,11,11,12,12,11,11,11,12,11,12,11,11,11,11,11,11,11,11,11,12,11,11,11,11,11,11,11,11,11,11,11,11,11,11,11,11,11,11,11,11,11,11,11,11,11,11,11,11,11,11,11,11,11,11,11,12,12,11,11,11,11,11,11,12,12,12,12,11,12,11,11,11,11,11,11,11,11,11,11,11,11,11,12,11,11,11,11,11,11,12,11,11,11,11,11,11,11,11,11,12,11,11,11,12,11,11,12,11,11,11,11,11,11,12,11,11,11,11,11,11,11,11,12,11,11,11,11,11,11,12,11,11,11,11,11,11,11,11,11,11,12,12,11,11,12,11,11,12,11,12,11,11,11,11,11,12,12,11,11,11,11,11,11,11,11,11,11,11,11,12,12,11,11,11,11,12,12,11,11,11,11,11,11,11,11,12,12,11,11,11,11,11,12,11,11,11,11,11,11,11,11,11,11,11,11,11,11,11,11,12,12,11,11,13,12,12,12,13,13,14,15,17,18,19,19,20,19,19,19,18,18,18,17,19,20,20,20,21,21,22,23,22,22,22,23,23,22,23,23,23,23,25,26,26,26,27,27,28,29,30,32,33,33,32,34,34,35,34,34,35,35,36,36,36,36,36,36,36,36,36,38,39,39,39,39,38,38,38,38,40,41,42,42,45,44,44,44,45,46,47,46,46,45,45,45,44,45,46,47,48,48,47,48,47,46,47,47,47,49,50,53,55,53,53,54,53,52,53,55,54,53,54,53,53,53,56,59,59,59,59,61,60,60,60,60,61,62,60,59,60,60,59,59,59,58,57,57,58,60,59,58,57,57,58,60,60,63,63,63,64,65,65,64,64,63,63,62,63,62,61,60,60,60,58,60,64,64,64,65,67,67,66,65,64,64,65,64,64,63,63,64,64,64,63,63,62,62,61,60,59,58,58,56,57,57,57,55,54,54,53,52,51,50,50,50,49,49,50,51,53,55,55,56,56,56,55,54,54,54,53,53,53,52,51,50,50,49,48,48,47,47,48,47,47,46,45,45,45,45,44,43,43,43,42,42,41,41,40,39,39,38,38,39,38,37,38,36,36,36,35,34,34,34,35,36,35,34,34,34,35,34,34,33,34,34,33,34,34,34,33,34,37,36,36,37,37,37,36,36,35,35,35,34,34,34,34,34,34,35,35,38,38,37,38,37,36,36,37,37,38,39,39,38,38,38,37,37,37,36,36,37,38,38,38,38,38,38,38,37,36,36,37,38,38,39,39,39,38,37,37,36,36,35,34,34,35,34,34,33,33,33,33,33,34,34,34,34,32,32,32,31,31,31,32,33,35,35,36,38,39,37,37,37,38,39,39,39,38,38,38,38,38,37,37,36,35,35,35,35,34,34,33,33,33,32,32,32,32,31,31,31,32,32,31,31,30,30,30,29,28,28,28,28,27,27,27,27,27,26,26,26,26,27,26,25,25,25,24,24,23,24,24,24,23,23,22,22,22,22,22,22,22,21,21,21,21,21,20,21,21,20,20,20,20,20,21,24,25,25,29,30,30,30,30,29,29,29,29,29,28,28,27,28,26,26,26,26,25,25,25,25,25,25,24,25,24,24,23,23,23,23,23,22,22,22,22,21,21,21,21,20,20,20,20,21,21,21,21,20,20,20,19,20,19,19,19,19,19,19,19,19,20,22,25,27,29,28,28,29,29,28,30,32,33,32,32,32,31,31,31,32,33,34,35,34,34,33,33,33,32,31,31,30,30,30,30,31,31,30,32,38,44,46,50,54,54,54,53,52,54,58,59,59,60,62,61,61,60,63,63,62,63,65,66,65,65,66,66,67,70,70,69,69,70,70,68,67,66,66,66,65,66,64,63,62,62,61,60,60,61,61,63,67,68,67,67,66,65,64,63,62,61,60,60,59,57,56,55,54,53,53,52,52,51,50,50,49,50,52,54,55,55,56,55,54,53,52,52,51,52,51,51,51,50,50,49,48,48,48,48,47,48,49,48,48,46,47,49,49,52,54,54,54,53,53,53,52,52,52,51,51,51,50,50,49,49,47,47,46,47,45,45,45,44,43,42,42,42,42,41,41,40,41,41,40,40,39,39,38,38,38,37,37,37,36,35,36,36,36,36,35,35,35,35,34,34,34,33,33,35,37,39,41,42,41,43,44,44,48,49,50,50,50,51,50,50,49,48,48,47,47,46,45,44,45,45,45,44,11,11,11,11,11,11,11,11,11,11,11,11
56,56,56,56,56,56,56,56,56,56,56,55,55,55,56,55,56,56,56,56,55,56,55,55,55,55,55,55,55,56,55,55,55,55,55,54,55,56,56,55,56,55,55,55,56,55,55,55,55,55,55,55,55,55,55,54,54,54,54,54,54,54,54,54,54,55,54,54,54,55,54,55,54,54,55,54,53,54,54,53,54,54,54,54,54,54,54,54,54,54,53,54,54,54,54,54,54,54,54,54,54,54,54,54,54,54,54,54,55,54,54,54,54,55,54,54,54,54,54,54,54,54,54,54,54,54,54,54,54,54,54,55,54,55,54,55,55,55,54,55,55,55,55,55,55,54,55,55,54,55,54,55,55,54,54,54,54,54,55,54,55,55,55,54,54,55,55,55,55,55,55,55,55,55,55,55,55,55,55,55,54,54,54,54,54,54,54,54,54,54,54,54,54,54,54,54,54,54,53,54,54,54,54,54,54,54,54,54,55,55,54,55,55,56,57,57,62,71,79,84,94,103,105,110,129,147,151,157,180,216,236,252,256,256,273,287,307,308,320,328,351,367,374,373,396,414,412,412,415,409,406,410,412,411,403,398,397,399,409,405,401,408,433,437,446,441,447,457,471,501,506,504,509,528,554,558,573,569,573,573,586,600,597,589,589,605,610,603,618,662,685,730,732,734,734,733,754,749,744,755,750,743,736,746,749,751,741,731,728,736,733,734,751,748,739,727,722,714,720,722,765,786,775,779,773,764,769,772,772,766,762,762,773,763,756,756,760,793,811,815,811,800,799,792,788,791,794,800,800,798,787,774,766,756,751,766,765,773,771,771,764,788,795,841,845,856,865,875,878,885,905,904,899,891,880,875,873,867,869,858,851,847,845,842,856,850,842,853,852,859,860,851,842,847,837,838,835,842,858,857,844,836,822,808,794,788,800,808,811,824,831,819,817,833,829,850,861,866,866,865,852,837,823,813,816,820,812,824,819,808,798,789,786,774,782,784,791,789,783,781,783,779,779,774,793,797,786,790,805,805,795,782,772,776,773,758,748,740,730,719,711,710,728,728,723,720,720,731,725,719,712,711,726,719,711,707,707,694,683,671,662,651,645,644,635,635,651,645,635,633,630,637,653,684,683,679,667,664,672,669,666,656,647,644,668,669,703,694,685,676,666,656,646,637,627,619,610,601,603,603,621,628,640,646,646,651,648,653,648,645,641,638,636,631,636,629,634,642,661,678,673,668,656,645,634,623,614,611,608,625,646,670,719,710,699,689,677,667,658,648,643,658,662,672,672,678,677,669,660,649,638,629,622,615,609,608,606,597,593,604,607,610,630,623,613,608,597,587,583,584,580,572,564,567,571,569,562,557,551,544,535,528,531,567,570,580,584,590,593,599,594,591,586,586,581,586,589,587,589,592,581,571,561,552,545,538,534,526,519,514,512,513,513,512,505,499,494,488,482,476,471,466,462,465,476,483,499,497,490,494,493,495,510,511,505,499,495,494,500,497,495,489,482,474,468,461,459,454,452,456,456,449,442,435,428,421,414,408,404,399,393,387,387,385,382,378,373,369,365,365,367,362,361,363,364,362,365,363,364,364,361,357,352,347,343,338,332,339,349,353,355,357,355,350,344,339,333,328,323,318,314,308,305,301,297,293,290,286,283,279,276,273,270,267,265,262,260,256,253,250,247,243,240,238,237,238,244,246,245,247,246,243,241,239,236,234,231,229,227,224,220,218,215,213,210,208,206,204,202,199,198,195,192,191,190,189,188,187,186,185,183,181,179,178,175,173,171,169,167,166,164,163,161,160,159,157,155,154,152,151,149,147,145,144,144,143,144,143,142,141,140,139,137,136,134,133,131,131,130,129,128,128,126,125,124,123,122,120,119,118,117,117,117,115,115,115,114,114,113,112,111,111,110,109,108,108,107,106,106,105,103,103,102,102,101,100,100,99,99,99,97,97,97,96,95,95,94,94,93,93,92,92,92,92,92,91,90,91,90,90,89,89,88,88,88,88,87,87,87,88,88,87,87,87,86,86,86,85,85,85,85,84,84,83,83,84,83,83,82,83,83,83,83,83,83,83,83,82,82,82,82,82,82,82,82,82,81,81,81,81,80,80,80,81,80,80,80,80,80,80,80,80,80,80,80,80,80,80,80,79,79,79,79,78,78,78,78,77,78,78,78,77,77,77,76,76,76,75,75,75,75,75,74,74,74,74,74,74,73,73,73,73,73,73,72,72,71,72,71,54,54,55,54,54,54,54,54,55,54,54,54
12,11,11,11,11,12,11,11,11,11,11,11,11,11,11,11,11,11,11,11,11,11,11,11,11,11,11,11,12,10,11,11,11,11,11,11,11,11,11,11,10,11,11,10,11,11,11,11,11,12,11,12,11,11,11,10,11,11,11,11,11,11,11,11,11,11,10,11,11,11,11,11,11,11,11,11,11,11,11,11,11,11,11,11,11,11,11,11,11,11,11,11,11,11,11,11,11,11,11,11,11,11,11,11,11,10,11,11,11,11,11,11,11,11,11,11,11,11,11,11,10,11,11,11,11,11,11,11,11,11,11,11,11,11,11,11,11,11,11,11,11,11,11,11,11,11,11,11,11,11,11,11,12,12,11,11,11,11,11,11,11,11,11,11,11,11,11,11,11,11,12,11,11,11,11,11,11,11,11,11,11,11,11,11,11,11,11,11,11,11,11,11,11,11,11,11,11,11,11,11,11,11,11,11,11,11,11,12,11,11,11,10,11,11,11,11,11,11,11,11,11,11,11,11,11,11,11,11,11,11,12,11,11,11,11,11,11,11,11,11,11,11,11,11,11,11,11,11,11,11,11,11,11,12,12,12,11,13,13,13,13,14,14,15,15,16,17,19,19,21,20,21,22,22,22,24,23,25,24,25,26,26,25,26,27,27,27,26,28,27,28,28,28,28,27,28,28,30,31,31,30,30,30,30,33,34,33,32,32,32,33,33,34,33,34,37,39,39,38,38,37,36,36,37,39,38,39,42,45,46,46,46,45,44,44,43,42,43,42,42,46,49,49,48,48,49,54,55,55,57,58,57,57,56,56,55,57,57,57,57,56,56,55,54,54,53,53,52,51,51,49,49,51,51,51,50,50,49,49,48,48,48,48,48,47,47,46,46,45,44,43,44,46,46,45,45,46,48,49,48,48,50,51,51,51,51,49,49,47,47,46,46,46,46,48,47,49,50,50,49,50,51,50,49,50,49,49,49,49,49,48,47,48,47,46,46,46,46,47,46,47,45,46,45,46,45,44,44,43,42,46,49,49,52,53,53,52,52,52,52,51,51,50,49,49,49,50,52,53,52,53,55,55,55,54,54,54,53,52,53,52,52,51,50,49,48,48,47,47,46,47,49,48,47,46,46,45,44,43,43,42,42,42,41,41,40,40,39,40,40,40,41,41,40,40,40,39,38,38,37,36,36,36,36,35,35,35,35,36,37,38,37,37,36,35,34,35,36,37,37,37,38,37,38,37,37,36,37,36,36,37,37,37,36,35,35,35,35,35,35,36,36,37,36,37,37,38,38,37,37,36,37,37,37,37,37,36,36,37,38,37,37,37,36,36,35,35,35,34,34,33,33,33,32,33,31,31,31,31,30,31,31,30,31,30,30,29,30,29,29,29,28,29,27,27,27,27,27,27,27,28,27,27,27,26,27,25,26,25,26,26,25,25,25,24,24,24,23,23,23,23,22,23,22,24,25,24,25,25,24,23,23,24,24,23,24,24,23,23,23,23,22,22,23,23,23,24,24,24,24,25,23,23,23,22,22,22,22,22,22,22,21,21,21,21,21,21,21,21,20,20,20,20,20,20,20,20,20,20,20,20,20,20,20,19,19,19,20,19,19,20,21,21,20,21,21,20,20,20,20,20,20,19,20,21,20,22,23,23,24,24,24,24,23,23,23,24,24,25,24,23,24,23,23,22,22,23,23,23,24,24,24,23,23,24,23,23,22,22,22,22,21,21,21,20,21,21,22,24,25,24,24,24,25,25,25,26,26,25,25,25,24,24,24,23,23,23,22,22,22,22,22,22,22,21,21,21,21,21,20,20,20,21,21,20,21,20,19,19,20,19,19,19,18,18,19,18,19,18,19,20,20,20,19,20,20,20,19,19,19,19,19,18,18,18,18,18,18,18,19,18,18,18,17,17,17,18,17,17,17,17,17,17,17,17,16,17,16,16,16,16,16,16,16,16,16,16,16,17,16,17,18,18,17,17,17,17,18,17,18,18,18,17,18,17,17,18,17,17,17,18,18,18,18,18,19,22,23,23,23,22,22,22,22,23,23,22,22,22,25,25,27,29,28,30,34,37,37,37,36,35,37,38,39,39,40,42,42,42,42,43,45,45,48,49,53,61,65,64,67,74,83,85,88,87,88,89,90,88,87,87,86,85,84,82,81,79,79,78,77,77,78,77,78,78,79,80,83,82,85,86,87,86,85,84,83,85,86,86,87,85,83,83,82,81,79,79,91,90,90,89,88,87,86,84,83,83,82,81,80,79
54,55,54,54,54,54,54,55,55,55,54,54,54,55,54,54,54,54,54,54,54,54,54,54,54,55,54,54,54,54,54,54,55,54,54,54,54,54,54,54,54,53,54,54,54,54,54,54,54,54,54,54,54,55,55,55,55,55,55,55,55,55,55,55,55,55,55,55,56,56,56,56,56,55,56,55,56,56,56,56,55,55,55,55,55,56,55,55,55,55,55,55,55,55,55,55,56,56,55,56,55,56,56,56,57,57,56,56,57,57,56,56,56,57,56,56,57,57,57,58,57,58,58,57,58,58,58,58,58,58,58,58,58,58,57,58,57,58,57,57,57,58,58,58,59,59,58,58,58,58,59,59,59,59,59,59,60,60,59,59,59,59,60,60,59,60,59,60,61,60,60,60,60,61,60,60,60,60,60,60,61,61,60,61,61,61,61,61,60,60,61,60,60,60,60,61,59,60,60,60,60,60,60,60,60,61,60,60,60,60,59,60,59,59,60,60,60,60,60,60,60,60,60,60,61,60,60,60,60,61,61,62,62,62,63,64,64,64,65,65,68,78,85,89,88,97,108,115,124,133,146,174,186,196,196,204,209,216,218,217,224,252,297,323,384,422,430,445,448,473,488,486,482,499,508,543,590,595,609,612,619,614,616,608,601,594,593,594,607,623,615,605,609,606,603,594,586,594,601,601,613,604,615,646,670,677,684,699,690,712,757,766,751,742,743,734,731,743,776,775,778,792,782,778,766,772,795,846,853,848,833,839,844,840,830,820,814,808,807,795,805,801,798,802,791,785,778,775,777,788,778,766,763,771,767,817,831,865,863,850,845,843,830,836,872,884,892,887,890,893,885,886,899,895,906,908,937,933,931,925,914,904,895,886,873,857,843,834,832,903,929,939,981,982,982,981,982,982,982,966,950,935,923,913,905,891,885,875,861,858,914,935,969,962,959,957,950,955,938,922,906,893,888,885,872,866,855,850,837,834,830,818,814,827,829,823,812,815,836,836,829,825,824,813,807,804,798,801,804,802,794,790,797,790,783,776,769,766,766,769,774,772,771,780,774,785,780,778,769,764,756,775,791,811,814,804,807,823,817,811,801,791,783,783,777,764,752,742,756,760,784,779,779,766,763,780,772,762,752,742,742,740,733,742,738,730,719,707,695,709,726,733,766,758,751,740,727,718,714,705,704,717,709,703,711,711,705,705,722,732,731,727,719,708,710,732,735,748,739,741,732,719,719,717,715,704,697,688,682,680,671,690,718,715,712,701,688,680,676,684,682,682,679,680,679,676,666,671,666,660,653,650,655,667,677,692,687,677,669,658,650,639,636,636,634,630,619,611,611,606,606,616,621,626,626,628,625,623,621,631,634,630,622,616,623,619,625,625,619,619,613,604,596,594,588,590,581,586,578,573,568,563,558,553,552,572,600,612,606,615,618,646,655,651,642,632,630,623,618,613,606,615,619,637,631,620,612,601,592,584,576,569,562,561,561,563,573,569,559,550,554,554,556,555,560,560,551,543,535,525,517,512,515,542,546,572,603,601,593,592,591,586,576,569,566,556,548,542,533,533,544,551,575,577,572,571,585,588,607,613,605,594,585,580,590,589,592,586,580,587,582,573,563,552,543,535,528,523,522,514,510,505,502,509,515,528,529,522,515,508,500,495,496,495,492,486,480,479,485,481,481,476,475,471,465,467,476,477,479,476,469,463,460,457,450,448,444,441,433,428,426,422,418,427,435,438,461,471,466,462,462,467,479,496,492,486,483,475,467,458,451,443,437,431,424,423,418,421,419,417,420,416,411,406,400,393,387,383,378,373,367,363,358,351,347,342,337,332,328,323,319,316,316,311,308,308,307,312,315,314,313,308,302,299,296,292,288,284,279,275,271,266,263,260,256,252,250,246,242,239,238,238,235,232,230,229,227,224,221,219,216,213,210,207,204,202,199,196,194,192,190,187,184,182,179,177,176,173,171,169,166,165,163,161,160,159,157,155,153,151,150,149,148,147,145,143,141,140,138,137,135,134,131,130,129,129,128,127,126,124,123,121,120,119,118,116,115,114,112,111,111,110,109,107,106,106,104,103,102,102,101,100,98,97,97,96,95,94,94,93,92,92,91,91,90,90,89,89,89,90,89,89,88,88,87,86,86,85,84,83,83,83,83,83,81,81,81,80,80,79,79,78,78,78,77,77,77,76,75,76,75,75,75,74,74,73,73,73,73,72,72,72,71,71,70,71,70,99,100,100,99,99,99,99,99,99,99,99,99,99,99
12,12,12,11,12,12,12,12,12,11,12,11,11,11,12,12,12,12,12,12,12,12,12,12,12,12,11,12,12,12,13,12,12,11,12,12,11,12,12,12,12,12,13,11,12,13,12,12,12,12,12,12,12,12,12,12,12,12,12,13,12,12,12,12,12,12,12,12,12,11,11,12,11,12,12,12,12,12,12,13,12,12,12,12,12,12,11,12,11,12,12,11,12,11,12,12,12,12,12,12,12,12,12,12,12,11,11,12,12,12,12,12,12,12,12,12,12,12,12,11,12,11,12,13,12,12,12,12,11,12,11,12,12,12,12,12,12,12,11,12,12,12,11,11,12,12,12,11,11,12,12,12,11,12,12,12,12,11,12,11,12,12,11,12,12,12,12,12,11,12,12,11,12,12,12,12,12,12,12,11,11,12,11,11,12,12,11,12,12,11,12,12,12,12,12,11,12,12,12,12,12,12,12,12,12,12,12,11,11,12,12,11,12,11,12,12,12,11,11,11,11,11,11,11,11,12,12,12,12,12,12,12,12,12,11,12,12,12,12,11,12,12,12,12,12,12,15,18,20,25,27,25,25,26,25,25,24,25,25,25,26,24,24,25,24,24,24,24,23,26,32,35,35,36,38,40,40,40,40,40,39,39,39,39,39,38,38,37,37,36,36,36,35,35,34,34,34,33,32,34,37,36,36,35,36,36,36,37,37,39,40,39,39,38,39,41,42,44,43,43,43,44,43,43,43,43,42,42,42,46,46,47,48,48,48,49,49,48,48,51,53,52,52,51,51,52,50,50,50,51,51,53,52,53,54,54,53,53,52,51,51,51,50,50,49,48,49,48,48,48,47,47,47,47,48,49,49,48,47,46,46,45,45,45,45,46,46,46,46,46,45,45,44,44,44,43,43,42,41,41,39,39,39,38,38,38,40,39,40,40,39,39,39,38,38,38,38,38,36,36,36,35,35,34,34,33,33,33,33,32,32,33,32,32,32,32,32,33,32,32,31,32,31,31,31,32,33,34,35,36,35,35,34,34,34,34,33,33,34,34,36,37,36,36,36,35,35,35,34,34,34,34,33,33,33,32,33,34,34,34,34,34,33,33,33,33,32,32,32,31,31,31,30,30,30,30,30,30,30,30,29,29,29,28,28,28,27,27,26,26,26,25,26,27,26,27,26,26,26,25,25,24,25,24,24,24,24,23,23,23,23,23,22,22,22,21,21,21,23,23,24,25,24,24,24,23,23,23,24,27,27,28,28,28,28,28,27,28,28,29,29,29,29,28,28,27,28,29,29,30,30,30,31,31,31,31,30,30,29,30,30,29,30,31,31,32,31,31,30,30,30,30,31,32,32,33,32,32,32,31,30,30,30,30,31,32,31,30,30,30,29,29,29,29,28,29,29,28,28,27,27,27,26,27,26,26,26,25,25,25,26,26,25,26,28,30,30,29,30,30,31,30,30,30,29,29,31,32,32,33,32,32,32,31,31,30,30,31,31,31,31,30,30,29,29,28,28,28,28,27,27,27,26,26,27,27,27,26,26,26,25,25,25,25,25,24,24,24,24,23,23,23,24,23,23,23,22,24,25,25,27,27,27,26,25,26,26,25,25,25,24,24,24,24,24,24,24,24,24,23,23,23,23,24,24,24,25,24,24,24,24,24,24,24,24,24,24,24,23,23,22,23,22,22,22,21,21,21,21,22,21,21,21,21,21,21,20,20,20,19,20,21,20,20,21,22,23,23,23,22,23,22,22,21,21,21,21,21,20,20,22,21,21,22,21,22,21,21,20,20,20,20,19,20,19,19,19,19,19,18,18,18,18,18,18,18,17,17,18,17,17,17,17,16,16,16,16,16,16,16,16,16,15,16,16,15,16,15,15,14,15,15,14,14,14,15,15,15,15,16,17,19,19,21,20,21,22,22,22,25,27,28,28,28,28,28,28,30,31,31,31,34,38,39,41,42,47,53,56,57,62,63,66,71,77,77,75,75,74,75,79,82,83,84,90,94,93,92,90,93,97,103,108,113,119,119,118,117,116,114,114,111,109,108,106,104,104,103,102,100,98,97,96,96,95,96,102,110,110,113,114,124,137,141,147,150,150,148,144,142,142,140,137,135,134,134,133,134,131,131,128,126,124,124,125,125,122,120,122,121,121,120,118,117,113,112,112,111,108,107,107,106,103,102,100,98,97,96,94,92,90,88,87,86,85,85,85,86,86,85,84,83,82,10,10,10,10,10,10,10,10,10,10,11,10,10,10,10,11,11,11
75,75,75,75,75,75,75,75,75,74,75,75,75,75,75,76,75,75,76,76,76,76,76,75,76,75,75,76,75,76,76,76,75,76,76,76,76,76,75,75,76,76,76,76,76,75,76,76,76,76,76,76,76,76,76,76,75,75,75,75,75,75,75,75,75,75,76,75,76,76,76,76,76,76,76,75,75,76,76,75,76,75,75,76,76,75,75,75,75,75,75,75,75,75,75,75,75,75,75,75,75,75,76,76,75,74,74,75,74,74,74,74,74,74,74,73,73,73,73,73,73,73,73,73,73,72,72,72,72,72,72,72,72,71,71,71,71,71,71,71,71,71,71,71,71,71,70,70,70,71,71,71,70,71,70,70,70,70,70,70,70,70,70,71,71,71,70,70,70,69,70,69,70,69,69,69,68,69,68,69,69,69,69,69,69,69,69,69,70,69,69,69,69,69,69,69,69,69,69,69,69,69,68,69,69,69,69,69,69,69,69,69,70,70,70,70,70,70,70,70,70,70,70,70,70,70,70,70,69,69,68,69,68,69,68,68,68,69,69,70,69,69,69,69,69,69,69,69,69,69,69,69,69,69,68,70,69,69,69,69,68,68,68,70,69,70,71,72,72,72,71,71,71,72,72,73,74,75,75,75,76,76,77,80,80,82,83,83,82,81,81,81,81,83,84,89,103,114,117,118,119,140,174,205,224,223,242,275,296,296,293,293,294,295,311,335,371,399,443,466,470,487,509,518,516,510,518,552,581,593,630,647,645,634,635,632,649,673,679,678,705,703,718,752,756,753,751,744,738,753,760,771,793,795,798,789,781,777,774,784,791,840,860,861,868,868,873,866,851,839,836,827,815,827,842,848,868,867,854,844,838,834,826,816,812,807,802,790,783,772,773,802,811,839,831,820,821,827,829,828,825,825,819,809,826,828,816,815,837,832,834,820,806,795,792,786,783,777,768,762,761,767,763,778,775,772,767,785,776,773,770,773,777,767,757,747,738,728,716,711,727,739,773,785,780,777,778,787,779,782,790,784,776,772,759,748,736,732,731,725,716,718,712,703,698,691,684,677,675,680,688,694,689,682,677,673,680,687,680,673,667,659,653,646,645,640,648,643,637,631,626,617,621,631,630,643,647,652,648,641,635,635,630,620,620,630,650,674,703,698,689,681,686,681,679,679,694,733,729,734,727,718,711,702,708,715,712,713,701,697,691,686,681,669,660,679,693,689,703,727,725,728,715,704,695,685,679,676,669,659,653,645,647,648,641,635,627,620,617,630,641,661,655,645,633,622,614,611,603,617,617,637,627,623,619,613,605,597,596,591,601,616,623,679,699,688,678,669,664,680,681,689,708,720,714,714,705,692,679,668,663,693,703,719,753,759,759,748,739,742,734,728,724,736,739,734,731,725,712,701,692,687,684,675,679,688,691,699,699,692,683,678,684,702,709,745,741,735,729,718,705,694,683,671,670,697,700,713,745,734,721,711,699,688,680,671,669,676,671,667,675,668,658,646,634,624,612,602,598,595,591,590,580,571,565,561,562,555,567,579,574,571,563,557,558,551,543,533,525,527,528,526,525,523,525,522,515,518,529,533,532,524,520,514,520,517,527,522,522,519,514,507,498,496,492,500,503,501,500,498,512,512,523,525,544,568,576,571,560,559,552,546,541,532,528,522,516,516,509,503,500,498,492,485,483,488,485,483,483,489,495,505,514,514,520,514,511,503,495,495,495,499,496,502,513,510,509,500,494,487,481,472,466,461,456,459,457,454,449,446,445,449,463,486,493,487,480,472,464,456,449,441,435,432,436,433,432,429,424,418,413,410,405,398,394,397,392,386,380,375,370,368,365,358,354,351,347,341,336,333,331,329,326,323,321,319,322,321,324,324,328,329,327,327,324,320,315,310,305,301,296,291,287,282,278,273,269,265,261,258,254,249,245,242,238,235,231,228,224,221,217,214,211,208,205,204,202,200,198,196,194,191,189,187,185,182,180,178,176,174,173,170,169,166,164,161,160,158,155,155,153,152,150,149,146,144,143,142,140,138,137,135,133,131,130,129,128,127,126,125,123,123,121,121,120,119,118,117,117,116,115,114,114,114,112,111,111,110,109,107,107,106,105,103,103,103,102,101,101,100,100,99,99,98,97,97,97,96,96,95,95,95,95,95,95,94,94,94,94,94,93,93,92,91,91,90,90,89,88,88,87,87,87,86,85,84,84,84,83,83,82,82,81,73,73,73,73,73,73,73,73,73,73,73,73,73,73,72,72,72,72
11,10,11,11,11,11,10,11,11,10,11,10,10,11,11,11,11,10,10,10,11,11,11,10,11,11,10,11,10,11,10,10,10,11,11,11,11,10,10,10,10,11,11,10,11,11,11,10,10,10,10,11,11,11,10,11,10,11,11,10,11,11,11,10,10,11,10,10,11,10,11,10,11,10,10,10,10,10,11,11,11,10,10,10,10,11,11,10,11,11,10,11,10,11,11,10,10,11,10,11,11,11,10,10,11,11,10,10,10,10,11,10,11,10,10,11,10,10,10,10,10,10,10,10,10,10,10,10,11,10,11,10,10,10,11,11,11,10,10,10,10,11,10,10,10,10,10,10,11,11,10,10,10,10,10,10,11,10,10,10,10,10,10,10,11,10,10,10,10,10,11,11,11,10,10,11,10,11,10,10,10,10,11,10,10,10,10,10,10,10,11,11,10,10,10,10,10,11,10,10,10,11,10,10,10,10,10,10,10,11,10,11,11,10,11,10,10,11,10,10,10,11,10,10,10,10,10,11,10,10,10,10,10,10,10,11,11,10,10,11,10,10,10,10,10,10,11,10,11,11,11,10,10,10,10,10,11,10,11,10,10,11,10,11,10,10,10,11,10,10,10,11,10,10,11,11,10,10,10,10,10,10,10,11,10,10,11,10,11,11,11,11,11,11,11,11,11,11,11,11,11,10,11,11,11,11,11,11,11,11,11,11,11,11,11,11,11,11,11,11,11,11,11,11,11,11,11,11,11,11,12,11,12,12,12,12,12,13,14,15,16,16,16,16,16,16,16,15,16,16,16,17,20,20,20,21,20,21,20,20,20,20,20,20,19,20,20,22,25,24,24,24,24,24,24,25,26,28,29,29,29,30,29,29,29,29,29,29,30,30,30,30,29,29,29,28,28,29,29,30,30,30,32,31,32,34,35,35,35,34,34,34,36,37,37,37,37,38,38,38,39,38,38,38,38,36,36,36,35,35,34,35,35,37,40,42,41,43,43,43,43,42,44,44,44,44,44,44,44,43,44,44,44,43,44,43,43,43,42,44,45,46,46,47,46,47,48,49,49,50,51,52,54,55,55,55,53,54,56,58,58,58,59,59,58,56,56,56,56,56,56,55,54,53,52,52,53,52,53,55,54,53,53,53,52,52,53,55,55,53,52,51,50,50,49,50,52,52,51,50,50,49,48,48,48,47,49,49,48,47,48,47,46,47,48,47,47,46,47,47,46,45,45,44,43,42,41,42,41,41,41,42,43,43,45,46,46,46,47,45,44,45,47,47,46,47,48,47,47,46,45,45,46,46,46,45,44,44,43,43,44,42,43,45,48,47,46,46,45,44,45,46,46,46,46,46,45,45,43,44,42,42,42,42,42,41,40,39,40,40,40,39,39,38,39,38,37,37,36,36,35,35,34,34,34,33,32,33,32,31,31,30,31,32,33,33,33,33,33,32,32,32,32,31,31,31,30,30,30,31,31,31,31,30,30,30,29,30,29,29,30,30,29,29,29,29,28,28,27,27,26,27,28,28,27,27,26,26,26,26,27,27,26,26,26,26,25,25,25,26,25,25,25,26,26,25,26,24,24,24,24,24,25,26,25,26,25,25,25,24,23,24,24,23,24,23,23,23,23,22,22,22,22,21,21,21,21,21,21,21,21,21,20,20,20,20,20,19,19,19,19,19,20,20,19,19,20,19,18,18,19,19,19,19,18,18,18,18,19,17,17,17,16,17,17,17,17,17,17,17,17,17,17,18,17,17,17,16,16,16,16,16,16,16,16,16,16,16,16,16,15,15,15,16,15,15,15,16,16,16,16,15,15,15,15,15,15,15,15,15,16,16,15,15,14,15,14,15,15,15,16,17,16,16,15,16,16,15,16,17,16,18,19,20,20,20,20,20,19,20,20,23,26,29,30,31,32,32,34,33,32,32,32,33,36,37,36,36,36,37,37,36,35,36,36,36,36,35,35,34,34,35,38,39,40,43,42,43,43,42,42,42,45,45,44,46,45,45,44,43,43,42,42,45,47,48,51,51,51,50,49,49,48,48,47,47,48,49,48,48,48,47,46,46,46,46,46,46,46,46,45,44,43,44,43,43,43,42,41,40,41,42,41,42,43,42,41,41,40,40,39,38,38,38,37,36,36,36,36,36,36,39,47,54,55,56,60,63,66,64,64,63,62,61,61,59,58,57,56,55,54,53,53,53,52,51,50,49,48,48,47,20,20,20,20,19,19,19,19,18,18,18,18,18,18,18,18,18,17,17,17
72,72,72,72,72,73,72,72,72,73,73,73,73,73,72,72,73,72,72,72,72,72,72,71,72,72,71,72,72,72,72,72,72,72,72,72,72,72,71,71,72,71,71,71,70,70,70,70,71,71,71,71,71,71,72,72,72,72,72,72,73,74,73,73,73,74,73,73,73,73,73,73,73,73,73,73,73,73,73,73,73,74,74,74,75,74,74,74,74,76,75,75,75,74,75,75,74,74,75,74,74,74,74,75,74,75,75,74,74,74,74,74,74,74,75,74,75,75,74,74,74,74,74,74,75,75,75,75,75,75,75,75,74,76,75,75,75,75,75,75,75,75,74,74,75,75,74,74,74,74,74,75,75,74,74,74,74,74,74,73,73,73,73,73,73,73,73,72,73,72,73,73,72,72,73,72,73,73,73,73,73,72,73,73,73,73,73,74,73,72,73,74,74,74,74,75,74,74,75,75,75,75,75,75,74,74,75,74,75,74,74,74,75,75,75,75,74,74,74,74,74,74,74,74,74,74,74,74,74,74,74,74,74,74,74,74,74,74,74,74,74,74,74,74,73,73,73,73,73,73,73,73,73,73,73,73,73,73,73,72,73,72,72,72,72,72,72,72,72,73,73,73,73,73,73,74,74,74,74,74,74,74,74,74,74,74,74,73,74,74,73,73,73,72,72,72,73,72,73,73,73,73,73,73,73,73,73,72,73,73,73,73,73,73,72,72,72,72,72,71,72,73,74,75,76,76,78,83,89,93,94,94,99,99,101,104,113,134,141,140,150,162,174,187,196,218,229,240,247,270,277,282,291,299,303,301,322,334,331,330,332,339,349,352,366,383,401,406,404,414,416,428,443,441,448,449,452,452,453,460,456,470,473,482,510,538,537,554,564,598,636,640,683,688,690,683,677,676,681,685,708,707,726,752,760,769,796,800,813,821,809,803,799,803,795,791,795,794,793,780,779,787,789,802,796,789,784,794,784,789,826,831,831,853,865,879,877,864,852,844,834,847,847,851,880,889,896,888,881,876,894,902,937,943,926,910,899,900,914,916,955,982,981,982,969,959,953,939,952,982,982,981,982,982,982,981,965,951,943,937,940,940,926,917,910,893,878,871,861,863,877,898,889,877,867,860,847,845,843,838,834,836,821,811,819,836,832,839,842,842,850,841,827,817,802,788,784,789,793,798,801,800,794,779,773,789,790,792,785,784,777,769,758,754,756,770,760,768,767,787,791,779,770,757,749,759,754,744,733,725,721,735,741,757,751,755,765,754,746,736,724,728,752,750,769,767,765,774,774,767,764,751,744,744,740,735,731,725,714,706,696,690,688,716,707,698,689,694,701,695,689,679,673,669,659,669,673,679,688,676,666,660,656,665,660,648,636,627,619,620,619,612,603,605,610,602,597,593,588,590,583,576,572,574,564,557,582,592,593,595,587,592,591,597,596,591,582,575,579,585,591,603,601,595,590,591,586,587,595,596,615,614,611,600,598,606,613,605,601,594,607,624,654,660,652,643,632,625,617,617,611,605,598,596,594,591,609,607,613,622,615,616,620,612,603,605,605,594,588,581,575,586,583,592,596,588,578,569,563,554,545,559,577,579,600,604,599,592,586,578,567,562,553,553,558,570,576,574,572,566,560,552,547,544,536,534,526,519,534,538,556,554,548,542,533,525,527,525,519,509,500,492,483,476,468,469,470,467,462,455,450,444,442,440,433,428,424,420,415,410,405,402,398,392,386,382,376,370,371,368,363,361,367,366,362,356,351,346,342,342,344,340,335,331,327,322,318,314,310,306,304,300,296,293,289,286,283,280,278,277,274,270,266,262,258,258,256,253,251,249,245,243,240,237,233,230,226,223,222,222,220,218,216,214,213,212,209,208,207,205,203,201,198,196,194,192,190,188,185,183,180,178,176,174,173,172,170,169,168,166,165,164,163,161,159,157,155,153,151,150,148,146,144,143,142,142,141,139,138,137,135,133,132,130,130,129,128,127,126,125,124,123,120,120,118,117,116,115,113,113,112,111,110,110,108,107,106,105,104,104,103,102,101,100,99,98,97,97,96,96,95,93,93,92,93,91,90,89,89,88,87,87,86,86,85,84,84,83,82,82,82,81,81,81,80,80,79,79,78,78,78,77,76,76,76,75,75,75,74,74,73,73,73,72,72,72,72,71,71,72,70,71,70,70,70,70,69,69,70,69,68,68,68,69,69,68,68,68,67,68,67,59,59,59,60,61,61,61,61,61,60,60,60,60,60,60,60,59,60,59,59
17,17,17,17,16,16,16,16,16,16,16,16,20,23,25,27,28,27,27,26,26,26,25,25,25,24,24,23,24,23,23,23,23,22,22,22,21,21,21,21,21,20,20,20,20,20,20,19,19,20,19,18,18,18,18,18,18,18,18,18,17,17,17,17,17,17,16,16,16,16,16,16,16,16,15,15,16,15,15,15,15,15,14,15,15,15,14,14,14,15,14,15,19,21,25,26,26,26,25,26,25,24,24,24,23,23,23,23,22,22,22,22,21,21,21,21,20,20,20,19,20,19,19,20,19,19,19,19,19,19,18,18,18,17,18,17,17,17,17,17,17,16,16,17,16,16,16,16,15,15,18,21,24,27,28,28,27,27,26,26,26,25,25,26,26,26,25,26,25,25,25,24,29,42,51,61,67,66,66,65,64,63,62,62,62,64,66,67,67,66,65,63,63,62,60,60,59,58,57,55,54,54,53,51,51,50,49,49,48,47,46,46,45,44,44,43,43,42,42,41,40,41,40,40,41,40,39,40,39,39,39,38,39,38,39,38,37,37,37,36,37,37,39,40,39,40,40,39,40,42,43,45,46,46,46,45,45,45,46,48,49,48,50,52,51,51,50,49,48,48,47,47,47,47,46,48,50,50,50,50,50,50,53,54,53,53,52,52,52,51,51,53,53,52,54,54,53,53,51,51,54,58,62,68,75,76,78,84,85,85,85,84,83,82,81,80,78,78,79,78,79,80,81,79,78,78,77,75,75,75,75,76,74,72,71,70,69,67,67,66,64,64,63,62,64,66,67,67,69,69,68,67,66,66,64,64,64,64,62,61,60,59,58,58,56,56,55,55,55,53,53,52,52,51,51,51,50,49,48,48,48,49,49,49,48,48,47,47,49,51,50,51,52,53,52,51,51,50,50,49,48,47,47,46,45,45,44,43,42,42,41,41,42,43,43,43,43,42,43,43,43,43,43,42,41,41,40,39,39,38,37,37,36,36,36,35,35,34,33,33,33,33,34,34,34,33,32,32,32,32,31,31,30,30,30,29,29,29,28,27,27,28,27,26,26,26,25,25,25,25,24,24,24,24,23,23,23,23,23,23,23,22,22,22,22,22,21,21,21,21,21,20,20,20,20,20,20,19,19,19,19,19,19,18,18,18,18,18,18,17,18,20,23,24,25,27,28,29,29,28,28,28,27,27,27,26,26,26,25,25,25,24,24,23,23,23,23,23,22,22,23,22,22,22,21,22,25,25,25,25,25,25,25,25,25,24,24,24,25,28,33,35,38,44,45,45,45,44,44,43,44,47,46,46,46,46,47,55,62,66,68,69,70,78,88,91,93,94,97,105,113,126,126,131,133,135,139,139,140,143,142,140,141,138,136,134,132,129,128,126,123,120,118,117,115,112,113,116,116,116,116,113,111,108,106,104,102,100,98,96,95,93,91,89,88,87,85,83,82,80,80,81,81,80,80,79,80,80,83,82,81,82,81,83,85,84,83,82,82,82,81,80,79,77,76,74,73,72,71,70,69,68,67,66,65,64,63,62,61,60,58,58,57,56,55,54,54,53,52,52,51,50,49,48,47,47,46,46,45,45,44,43,43,42,41,40,40,39,38,38,37,37,36,36,35,35,35,34,34,35,33,33,33,32,32,32,31,31,31,30,30,30,30,29,29,29,28,28,28,27,26,26,26,26,25,26,25,25,24,25,24,25,24,23,23,23,21,22,22,21,21,21,21,20,21,21,20,20,21,25,27,29,31,32,32,32,32,32,32,31,31,31,30,31,30,30,29,30,29,28,28,28,28,27,27,28,27,28,27,27,26,27,27,31,31,32,36,36,36,36,35,35,34,34,34,34,33,33,34,37,37,41,42,42,42,41,41,41,40,40,40,39,39,38,38,37,37,37,36,36,36,35,34,34,34,33,32,33,33,32,32,33,32,33,33,33,32,32,31,31,30,30,30,30,29,29,29,29,28,29,28,28,27,27,27,27,26,26,26,26,26,25,25,24,24,24,24,23,23,23,24,23,22,22,21,22,22,21,21,21,20,20,20,20,20,20,20,19,20,19,20,20,19,19,19,19,19,18,19,18,19,18,18,18,18,17,17,17,17,17,17,17,17,16,17,16,16,16,16,16,16,16,17,17,16,16,16,16,16,16,16,16,15,16,15,16,16,15,15,15,15,15,15,15,14,15,15,15,15,15,15,14,15,15,14,15,15,15,14,17,17,18,18,18,17,17,18,18,18,18,18,18,19,19,19,19,19,19,19,19,19
59,59,59,59,59,60,60,60,60,59,60,60,59,60,59,60,59,59,59,59,59,60,60,60,60,60,60,60,60,59,60,60,60,59,60,60,60,60,61,61,61,61,61,61,61,60,61,60,60,60,60,60,60,61,61,60,61,60,60,61,61,60,61,61,60,60,60,60,60,60,61,61,61,61,62,62,63,63,64,64,63,63,63,63,63,63,63,63,63,63,63,63,63,63,63,63,63,63,63,63,63,63,63,63,63,64,63,64,64,64,64,64,64,64,64,64,64,64,64,63,63,63,64,63,63,63,62,62,63,62,63,63,62,62,62,61,62,62,62,62,62,62,62,62,62,62,62,62,61,61,61,61,61,61,61,61,61,61,60,61,60,60,60,60,60,60,60,60,60,60,61,60,60,60,60,60,60,60,60,61,60,61,61,60,61,61,61,61,61,60,60,61,60,61,60,61,61,61,62,63,63,63,65,66,68,70,70,70,72,80,84,84,90,95,98,113,144,169,179,181,180,184,205,250,273,279,282,325,379,400,395,390,400,420,455,463,476,486,516,524,521,514,507,501,498,501,511,545,585,626,632,631,628,631,640,654,652,670,692,702,715,735,739,728,727,762,778,779,773,766,767,777,796,792,802,813,816,812,803,794,785,796,787,790,828,858,855,865,852,841,848,844,838,828,822,821,827,834,837,852,853,868,862,851,842,830,848,857,857,848,839,832,824,809,803,796,799,787,799,822,824,822,817,806,802,789,778,784,816,817,826,828,822,816,803,803,817,823,829,814,803,806,805,805,800,805,800,808,802,796,785,772,761,748,741,733,732,727,727,725,729,728,731,730,733,726,717,710,699,687,679,686,683,690,691,719,729,718,708,695,688,714,728,746,745,750,756,748,739,756,750,740,728,717,711,702,694,688,679,667,656,645,633,629,632,629,637,635,631,623,613,619,648,666,711,705,695,686,682,691,696,693,684,675,663,652,643,637,629,622,611,601,595,587,580,573,566,559,554,548,546,568,575,582,579,572,565,563,563,561,554,546,535,527,527,521,512,505,498,492,486,480,474,468,463,466,461,464,471,466,466,460,463,461,454,448,443,442,437,432,424,417,411,407,401,395,391,385,380,378,374,372,376,388,387,384,381,375,371,366,360,355,350,345,341,337,333,329,328,327,322,318,313,309,304,299,295,290,287,283,279,276,273,269,267,264,262,261,257,254,251,249,246,244,241,239,235,232,227,225,222,220,218,215,213,211,208,206,204,201,198,196,194,191,189,187,184,182,180,179,177,175,174,171,169,167,165,163,162,161,159,158,155,153,151,151,151,148,147,145,144,143,143,143,143,141,141,139,137,136,134,134,133,132,130,129,127,126,125,124,124,123,123,122,121,119,118,116,115,114,112,112,111,110,108,107,108,107,107,106,105,104,103,101,100,100,99,97,97,96,95,94,94,93,92,91,91,90,89,89,88,87,87,86,85,85,84,84,84,83,82,83,82,82,81,81,80,80,80,79,79,79,78,78,78,78,78,78,77,77,78,77,76,77,77,77,77,77,77,77,76,76,75,75,74,74,74,74,74,73,74,74,74,74,74,73,73,72,72,73,72,72,72,72,72,71,71,71,70,70,70,70,70,70,70,70,70,70,70,71,71,71,71,71,71,71,70,70,70,70,70,70,70,70,70,69,69,69,69,68,68,68,68,67,67,67,66,67,67,67,68,67,67,66,66,66,66,66,66,67,65,66,66,65,66,65,65,65,65,64,64,64,63,63,63,62,63,63,63,63,63,63,63,63,63,63,63,62,62,62,62,62,61,61,61,61,61,61,62,62,62,62,61,61,62,61,61,61,61,60,61,60,60,60,60,60,60,60,59,59,59,60,60,60,60,60,60,59,60,60,59,59,59,59,59,59,59,58,58,58,59,59,59,58,58,58,58,58,58,57,58,58,58,58,58,58,58,58,58,57,57,58,57,57,57,58,58,59,59,59,59,59,59,59,59,58,59,59,59,59,58,58,58,57,58,58,58,58,58,57,58,58,57,58,58,58,58,58,58,57,57,57,57,57,57,57,57,57,57,58,58,57,58,58,58,58,58,57,57,57,57,57,57,57,56,57,56,57,57,57,57,56,56,57,56,56,56,56,56,57,57,58,58,58,58,58,58,58,58,58,58,58,58,58,59,57,58,58,58,58,58,58,57,58,57,58,58,58,58,58,58,57,58,57,57,57,57,57,57,55,54,55,55,54,54,54,54,54,55,55,54,55,55,56,55,55,56,56,56,56,56
18,19,19,19,19,19,19,19,19,19,19,19,19,19,20,19,19,19,19,19,19,20,20,20,21,21,21,21,21,21,20,20,20,20,21,20,20,21,20,21,21,20,21,21,21,21,22,21,21,21,21,21,21,21,22,22,22,21,21,21,21,22,21,22,21,21,21,21,21,22,21,21,21,21,21,21,22,21,22,21,21,21,20,20,20,20,20,21,21,21,21,21,21,21,20,21,21,21,21,22,22,21,21,22,21,22,22,22,22,23,22,21,22,22,22,22,22,22,22,22,22,23,23,22,21,22,22,22,21,22,22,21,21,22,21,22,22,22,22,22,22,22,22,22,22,22,22,22,21,22,21,22,22,22,22,22,23,23,23,22,22,22,22,22,22,22,22,21,22,22,22,22,21,22,21,22,21,21,21,21,20,20,21,20,21,21,20,20,20,20,20,20,20,20,19,20,19,20,20,19,19,19,19,20,20,19,20,19,19,19,20,19,19,19,19,18,19,19,18,18,18,18,19,18,19,18,18,18,19,18,18,18,18,17,18,18,18,18,18,19,18,19,21,20,21,21,22,22,22,21,22,21,21,20,20,20,20,20,20,20,20,21,21,21,20,20,20,21,20,19,21,22,22,25,25,26,28,29,28,29,28,28,28,27,28,27,28,27,27,27,27,28,28,28,28,28,28,27,27,26,27,27,26,27,29,30,31,31,32,32,32,32,31,30,31,31,30,31,31,31,31,30,30,30,30,30,30,31,32,33,33,32,32,33,33,32,32,32,33,32,32,32,32,31,31,31,31,31,30,30,30,30,30,30,30,30,30,31,33,34,33,34,34,33,33,33,33,33,34,35,35,37,37,38,37,39,39,39,38,38,38,39,39,38,39,39,38,37,37,37,38,37,37,37,36,35,36,37,36,36,36,35,35,34,34,35,35,36,36,36,35,37,38,36,36,36,35,35,35,34,34,36,38,38,38,38,37,36,36,35,36,36,36,35,36,36,35,35,34,34,33,33,33,34,33,34,35,34,33,33,32,32,32,33,35,35,35,35,34,34,33,33,33,33,33,34,33,34,33,33,32,32,31,31,31,31,31,31,32,31,31,31,34,33,34,35,35,36,35,34,34,33,33,33,32,32,32,33,32,32,33,34,33,33,33,32,32,31,32,31,30,30,30,31,30,30,29,29,28,29,29,28,28,28,28,27,26,27,29,29,29,29,28,28,28,28,28,28,27,27,27,27,27,26,26,25,25,25,25,24,25,24,24,24,23,23,23,23,23,22,22,22,21,21,22,21,21,21,20,21,21,21,23,24,24,23,23,24,23,23,23,23,22,22,22,21,22,21,21,22,25,25,25,25,29,29,29,28,28,28,28,27,28,28,28,29,29,28,28,28,28,28,27,27,26,26,26,26,25,25,25,24,25,24,23,24,24,24,24,23,24,23,24,25,25,25,25,26,25,25,25,25,24,24,25,25,29,35,42,43,45,44,47,48,49,48,48,48,48,48,47,47,47,45,46,47,47,47,46,46,44,45,44,44,44,44,43,44,43,42,42,41,40,39,40,39,39,43,43,46,47,48,48,47,47,46,45,46,46,46,45,45,44,44,44,44,43,43,44,44,43,43,42,42,43,43,43,42,41,41,40,39,41,43,44,46,47,45,46,49,49,48,47,46,45,45,44,43,43,43,45,46,45,45,44,44,43,42,41,40,40,40,41,41,40,40,39,38,38,38,37,36,37,35,35,34,34,34,34,33,33,33,32,31,31,31,30,30,30,29,29,29,29,29,29,28,28,27,27,27,27,27,26,26,25,25,25,25,25,25,25,24,24,23,24,23,24,23,22,22,22,22,22,22,21,22,22,21,21,21,21,21,20,21,21,21,21,20,21,20,21,21,20,20,20,20,20,19,19,19,19,20,19,19,18,18,18,18,18,19,18,18,18,18,18,18,19,18,18,19,18,18,18,17,18,17,17,18,18,17,17,17,17,16,16,17,16,16,17,17,17,16,17,16,16,16,16,16,16,16,15,16,16,15,15,16,16,16,15,15,16,16,17,16,16,16,16,17,17,16,17,16,17,16,16,16,16,16,16,16,15,16,15,16,15,15,15,15,15,15,15,15,15,15,15,14,14,15,15,14,14,14,14,14,14,14,14,14,14,14,14,14,14,13,13,14,14,14,14,13,14,14,13,13,13,13,13,13,14,14,14,13,13,13,13,14,14,12,12,12,12,12,12,12,12,12,12,12,12,13,12,13,12,12,12,12,12,12,12,12,12
56,56,56,56,56,56,55,55,56,56,56,56,56,55,56,56,57,56,57,56,56,56,57,56,56,56,56,56,56,56,56,56,56,56,56,56,57,57,56,56,56,56,56,56,56,56,56,56,56,57,58,58,58,58,58,58,58,57,57,58,57,57,57,57,58,57,57,57,57,57,57,57,57,56,57,57,57,57,57,56,57,56,56,56,56,56,56,56,56,56,56,56,55,55,55,56,55,56,55,55,55,56,55,55,56,56,56,56,55,56,55,55,55,55,55,56,56,56,55,55,55,55,55,55,55,55,55,55,55,55,55,55,55,55,55,55,55,54,55,55,55,55,55,54,54,54,54,54,54,54,54,53,54,54,53,54,54,54,54,55,54,54,54,53,54,54,54,54,54,54,54,54,54,54,54,54,54,54,54,54,54,54,54,54,54,53,53,54,54,54,54,54,54,54,54,54,54,54,54,54,54,54,55,54,54,54,54,54,54,54,54,55,58,60,63,63,65,79,97,107,109,123,132,137,148,166,173,197,234,256,262,261,273,309,316,324,350,352,362,367,367,371,373,387,400,398,412,429,426,421,420,419,419,420,422,446,481,483,490,494,521,564,580,591,612,609,611,628,630,666,738,784,789,828,871,887,890,893,899,910,918,928,930,921,910,930,938,934,927,928,928,920,912,923,914,942,975,978,981,967,954,945,982,982,981,983,982,982,982,982,982,981,981,968,978,982,982,982,982,983,980,981,981,967,953,956,950,947,944,931,931,925,910,896,900,904,902,906,916,916,900,906,907,915,928,927,935,928,927,922,917,905,905,899,890,886,877,871,857,861,856,853,860,860,851,844,832,820,809,806,819,808,820,825,835,826,848,862,854,841,833,829,846,862,864,855,840,828,846,848,848,862,860,846,833,820,808,800,827,828,842,845,840,826,812,810,803,800,808,816,823,820,809,795,791,781,770,757,754,775,771,789,787,775,780,783,776,763,756,762,760,757,757,750,753,750,744,736,728,726,728,743,753,799,814,812,799,784,773,769,758,750,748,739,730,730,731,719,706,693,692,702,709,716,718,723,750,750,739,728,717,718,710,723,723,729,723,719,717,714,706,724,727,735,728,743,756,748,735,723,712,701,688,676,668,680,685,704,713,731,732,732,727,722,710,709,735,752,761,763,783,773,759,755,747,742,736,734,731,725,717,716,719,724,735,728,737,731,729,730,723,712,703,701,705,703,694,685,673,673,669,677,673,668,668,661,658,650,645,640,628,619,620,618,608,600,589,579,571,564,555,546,540,538,532,534,536,538,561,567,586,590,584,576,571,564,557,550,545,539,532,525,516,509,502,498,494,486,478,472,465,460,454,449,443,436,429,424,421,417,412,410,405,399,395,389,384,381,376,372,368,364,359,355,351,347,343,339,335,331,327,324,320,315,313,307,304,301,297,294,290,287,284,281,278,274,271,267,263,259,256,252,249,246,243,239,236,233,230,229,226,224,221,217,214,211,208,205,202,200,196,193,191,188,186,184,182,180,177,174,172,170,168,165,163,161,159,157,155,153,151,149,147,146,144,142,140,138,137,135,134,133,132,131,129,128,127,126,124,122,122,120,119,117,116,115,114,113,112,110,109,108,107,106,105,104,103,103,101,100,99,99,98,97,96,95,94,94,93,92,91,90,90,89,89,88,88,87,87,87,86,85,85,85,84,84,82,82,82,81,81,80,79,79,79,78,78,78,77,77,77,76,76,75,75,75,74,74,74,74,73,72,72,72,71,71,71,71,70,70,70,69,70,70,70,70,69,70,69,69,68,69,68,68,67,67,67,67,67,66,66,66,66,66,66,66,66,66,66,67,66,66,66,65,65,65,65,64,63,64,64,64,63,63,63,63,63,62,62,62,62,62,63,63,62,63,63,63,63,63,63,63,63,63,63,63,63,63,63,63,62,62,62,62,62,62,62,63,62,63,62,63,63,63,63,63,63,63,63,63,63,63,63,63,63,63,63,63,63,63,63,64,64,64,64,65,66,66,66,65,66,66,66,66,65,66,66,65,66,65,65,65,65,64,65,66,66,66,67,67,67,67,67,68,68,67,67,67,67,67,66,66,66,66,66,66,66,67,67,67,66,66,66,66,67,68,68,67,68,69,69,69,69,68,69,69,69,69,70,70,70,69,70,69,70,70,70,70,70,70,71,71,71,70,70,70,70,69,70,70,70,70,71,71,71,72,72,59,59,59,59,58,58,58,58,58,58,58,59,59,58,58,58,58,58,58,58,58,58,58,57
12,13,13,12,13,13,12,13,13,13,13,13,13,13,13,13,13,13,13,12,12,13,13,13,12,12,12,13,14,13,13,13,13,13,13,13,13,13,13,13,13,13,13,13,13,12,13,13,13,13,13,14,13,13,12,13,12,12,12,13,13,12,13,13,13,12,12,12,12,12,13,13,13,13,13,13,13,13,13,13,13,13,13,13,14,13,13,13,13,13,13,14,14,13,14,14,14,14,13,13,14,14,14,13,14,14,14,13,13,14,13,13,13,13,13,13,13,13,13,13,12,13,13,12,13,13,13,13,12,12,13,13,13,12,13,13,13,12,13,12,13,13,13,13,13,13,12,13,12,12,13,13,13,12,13,13,12,13,12,12,12,12,12,12,12,13,12,12,12,12,12,12,12,11,12,12,13,12,12,12,12,12,13,12,12,12,12,12,12,12,12,12,12,13,12,12,13,12,12,12,12,12,11,12,12,12,12,12,13,12,12,12,12,12,13,12,12,13,12,12,11,12,12,12,12,12,12,14,13,13,12,13,13,14,15,14,16,15,16,16,16,16,16,16,16,15,16,18,18,17,18,18,18,19,19,19,21,22,24,24,23,23,24,23,24,24,24,24,23,24,23,23,23,23,23,23,23,23,23,25,27,30,31,32,31,32,31,32,33,35,35,35,35,34,34,34,34,34,33,33,34,34,34,33,33,33,32,32,34,36,37,36,35,36,36,35,36,35,34,35,35,35,35,34,33,33,32,32,32,31,31,31,30,30,32,33,33,33,32,33,34,33,34,33,34,33,33,32,33,33,33,34,34,34,33,33,32,32,32,31,31,30,30,31,30,30,31,31,31,32,32,32,33,33,32,32,31,31,31,31,33,33,35,36,35,35,34,33,34,33,33,33,32,32,32,31,31,32,32,31,31,31,31,31,31,31,31,32,31,31,30,30,30,29,29,28,28,28,27,28,27,26,26,26,26,26,25,25,25,26,24,24,24,24,24,25,24,25,24,23,24,23,23,23,23,22,22,22,22,22,22,23,22,22,22,23,22,22,23,23,23,24,22,22,22,22,22,21,22,21,21,21,21,21,20,20,20,20,19,20,20,19,19,19,19,19,19,18,18,20,20,20,20,20,20,20,21,21,21,21,21,20,20,20,19,20,20,19,19,19,19,19,19,19,18,18,18,18,18,18,17,17,17,17,18,18,18,18,17,17,17,17,17,16,16,17,16,16,16,16,16,16,16,16,16,16,16,16,16,16,16,16,16,16,16,15,16,15,15,15,16,15,16,17,16,16,16,17,16,16,16,16,16,16,16,15,16,16,16,15,15,15,15,15,15,15,15,15,16,15,16,16,16,15,15,17,17,21,21,21,21,22,21,21,21,21,21,21,20,20,21,23,25,27,28,32,33,34,33,35,36,36,39,45,51,52,54,56,58,58,57,56,56,57,57,57,56,56,55,56,55,55,54,53,53,52,51,51,50,50,50,48,48,47,46,46,45,45,44,43,42,45,46,48,48,50,50,50,50,50,50,49,49,48,49,49,50,49,50,50,50,50,49,48,48,47,46,46,45,45,45,47,50,50,53,55,56,55,53,54,54,54,54,55,56,56,55,54,53,52,52,50,50,50,49,49,50,49,49,48,48,50,53,54,59,58,58,57,56,56,54,54,54,52,51,50,50,49,49,48,47,47,45,45,44,44,43,42,42,41,41,41,42,42,42,41,41,40,39,39,38,38,38,37,37,39,42,44,47,48,47,48,46,46,45,45,45,45,44,44,43,43,42,42,41,41,41,40,39,39,38,38,37,37,36,36,36,35,34,34,34,34,33,33,32,32,32,31,31,31,30,30,29,29,28,28,28,27,27,27,26,26,26,26,25,25,25,25,24,24,24,24,24,24,25,24,23,23,23,23,22,23,22,22,22,22,21,21,21,21,20,20,20,21,20,20,19,19,19,19,19,18,18,18,19,18,18,18,18,17,17,17,17,17,17,17,17,16,16,17,16,16,16,16,16,16,16,15,15,15,16,15,16,15,15,15,15,14,15,15,14,15,14,14,14,14,14,14,14,15,14,14,14,14,14,14,13,13,13,13,13,13,13,13,14,13,13,13,13,13,13,13,12,13,13,13,13,13,12,13,12,13,12,12,12,12,12,12,12,12,12,13,12,13,12,12,12,12,12,12,12,12,12,12,12,12,12,13,12,11,12,12,13,12,12,11,12,11,11,11,11,11,11,11,12,11,11,11,11,11,11,12,12,12,11,12,12,12,12,12,11
57,57,57,57,57,57,57,57,57,56,56,56,56,56,56,55,57,56,56,56,55,55,56,56,56,56,55,56,55,56,56,55,56,55,55,56,55,56,55,55,55,56,55,55,55,55,55,55,55,55,55,54,55,54,54,55,55,55,55,55,55,55,55,55,55,54,55,54,54,55,54,55,54,55,55,55,55,54,55,55,55,56,55,55,55,55,55,55,55,55,55,55,55,56,56,56,56,56,57,56,56,57,56,56,57,56,56,56,56,56,56,57,57,57,57,57,57,58,57,58,57,58,58,58,58,58,58,58,58,59,59,59,59,59,59,59,59,59,59,59,59,59,59,59,60,60,60,60,60,60,60,60,60,60,61,61,60,61,61,61,62,61,61,61,62,62,62,63,63,63,63,64,63,63,63,63,62,62,62,63,62,62,64,63,63,63,63,63,63,64,63,63,63,63,64,66,66,66,67,68,68,74,79,80,80,82,91,103,112,125,129,133,140,145,146,162,185,196,196,200,199,197,199,210,221,239,238,237,239,241,247,257,275,281,293,306,302,304,303,317,325,336,338,332,341,348,348,353,355,386,395,434,440,452,473,479,475,470,465,472,500,522,528,526,524,532,538,557,560,562,554,550,548,568,574,572,594,599,600,595,604,607,608,626,625,618,615,623,622,627,625,626,625,629,640,641,632,624,615,612,620,645,661,655,656,653,642,634,627,623,615,609,601,599,606,603,613,655,659,674,681,693,690,682,673,666,672,672,674,671,666,657,659,660,687,692,692,683,677,665,657,654,667,665,655,655,663,667,659,662,706,709,708,707,711,713,737,731,717,710,700,690,680,672,667,662,653,650,646,648,644,680,676,687,683,678,685,676,668,656,650,663,668,690,699,689,681,683,678,677,680,677,669,657,646,638,632,636,632,631,627,618,615,611,621,611,601,591,590,584,580,574,572,564,558,555,553,571,587,585,579,581,577,576,583,581,585,593,588,595,600,607,606,620,612,604,597,591,592,590,606,608,606,608,609,604,594,588,584,585,579,574,575,579,575,566,558,550,546,541,535,529,527,524,517,510,518,519,512,515,509,507,501,493,485,479,473,467,460,454,448,446,448,447,440,440,440,438,443,452,451,449,454,458,458,455,454,447,439,433,426,420,415,409,403,398,395,392,388,385,378,374,370,366,363,358,358,352,347,351,356,353,349,344,340,335,330,325,321,318,315,311,308,305,302,299,295,292,292,291,296,293,288,284,281,282,284,282,282,280,278,276,275,270,266,262,259,255,253,249,246,243,240,238,235,232,229,227,224,222,220,219,216,214,211,210,208,205,203,201,199,197,195,192,190,189,187,185,183,181,180,178,176,174,172,171,169,168,167,165,164,163,161,160,159,157,155,154,153,151,150,149,147,146,145,142,140,139,139,137,136,134,132,131,130,129,128,127,125,123,122,121,120,119,118,117,116,116,114,113,112,111,110,109,108,107,106,105,105,104,104,102,102,101,100,99,98,97,97,95,95,94,93,93,92,91,91,90,89,88,88,87,86,86,85,85,84,84,83,82,82,81,80,80,80,79,79,79,78,78,77,76,76,76,75,75,74,74,74,74,73,73,73,73,72,73,72,72,72,71,71,70,71,71,71,70,71,70,70,70,69,69,69,69,68,69,68,68,68,69,68,68,68,68,68,68,67,67,67,67,67,67,68,67,67,68,68,68,68,68,68,68,68,68,68,69,69,68,68,68,68,68,68,68,68,68,68,69,69,70,70,70,71,71,72,72,72,72,72,72,72,73,73,73,74,74,75,75,75,75,75,75,74,75,75,76,76,75,76,75,76,76,77,77,77,77,78,78,78,79,79,78,78,78,79,78,79,78,78,78,78,78,79,79,79,79,80,79,79,79,79,79,79,79,79,79,80,80,81,80,80,81,81,81,81,80,80,81,80,79,79,79,80,79,79,79,79,80,80,80,80,80,80,80,80,80,81,80,80,80,80,80,79,79,80,79,80,79,80,80,80,80,81,80,80,80,80,80,80,80,80,80,80,80,80,79,79,78,79,78,78,78,78,78,78,78,78,79,78,78,77,77,78,77,77,77,77,76,76,76,75,75,75,75,75,75,76,75,74,75,75,75,75,75,75,75,75,74,75,74,75,74,74,73,73,72,72,72,71,71,70,70,70,69,69,69,68,68,68,68,67,67,67,67,67,66,66,66,65,65,65,64,64,64,64,55,55,55,55,55,55,56,55,55,55,55,56,56,56,56,55,55,56,56,56,56,56,56,55,55,55
12,12,11,12,11,12,11,12,11,12,11,11,11,12,11,11,12,11,12,12,11,11,11,11,11,12,12,11,11,11,12,11,11,11,11,11,11,11,12,11,11,11,11,11,11,11,11,11,11,11,11,11,11,11,11,11,12,11,11,11,11,11,11,11,11,11,11,11,11,11,12,11,11,11,11,11,11,11,11,11,11,11,11,11,11,11,11,11,11,11,11,11,11,11,11,12,11,11,11,11,11,11,11,11,11,11,11,11,11,11,11,11,12,11,11,11,11,11,11,11,11,11,11,11,11,11,11,11,11,11,11,11,11,11,11,11,11,11,11,11,11,11,12,11,10,11,11,11,11,11,11,11,11,11,11,11,11,11,11,11,11,11,11,11,11,11,11,11,11,11,11,11,11,11,11,11,11,11,11,11,11,11,11,11,11,11,11,11,11,11,11,11,11,11,11,11,11,11,11,11,11,11,11,11,11,11,11,11,11,11,11,11,11,11,11,11,11,11,11,11,11,11,11,11,11,11,11,11,11,12,11,12,12,12,12,12,11,12,11,12,12,12,13,13,13,13,14,16,15,15,15,15,15,15,15,15,16,18,20,20,22,23,23,23,23,24,25,26,26,26,25,25,27,28,29,29,29,30,31,30,31,30,30,31,29,28,28,28,29,30,31,31,30,30,30,29,30,31,31,31,30,31,30,31,30,30,29,30,29,29,29,30,31,31,31,30,30,30,31,30,30,31,31,33,33,34,36,36,36,35,36,37,36,36,35,39,41,41,47,54,55,54,54,52,52,51,51,52,52,52,53,54,53,52,51,50,50,49,49,48,48,49,50,52,52,53,52,52,53,52,54,54,55,53,52,52,51,51,51,51,50,51,51,50,50,49,48,47,46,46,45,44,44,43,44,45,45,44,44,44,44,43,43,43,42,42,41,41,42,42,42,43,42,43,42,43,44,43,43,42,42,41,40,39,39,39,39,39,39,39,41,43,43,44,43,42,43,44,44,43,42,43,43,43,44,43,43,44,45,44,44,45,44,44,43,42,41,41,40,41,39,39,39,38,38,38,38,37,37,36,36,35,36,36,36,35,34,34,33,33,32,32,32,31,31,30,31,31,31,31,31,32,32,31,31,31,30,29,29,29,28,28,28,27,27,27,27,26,26,26,26,26,26,26,25,25,25,25,25,26,25,26,26,25,25,25,24,25,25,25,25,25,24,24,23,23,24,23,22,22,22,22,21,22,21,21,21,21,21,20,20,20,20,20,19,19,19,19,18,18,18,18,18,17,18,18,17,17,17,18,17,17,19,20,22,22,25,26,26,26,25,25,25,25,25,25,23,24,23,24,26,26,28,30,29,30,30,29,28,28,28,28,30,31,31,35,34,37,39,40,42,42,41,41,39,39,39,40,42,48,51,54,55,59,59,58,57,56,55,54,54,53,53,52,53,51,50,49,49,49,48,48,48,47,47,46,45,45,44,44,43,43,45,44,44,44,46,47,46,46,45,45,45,44,43,43,43,44,44,46,45,45,44,44,46,45,44,43,46,50,52,52,55,56,56,55,58,58,57,56,57,57,57,57,57,57,57,56,55,54,53,52,52,52,52,53,52,54,57,57,60,61,60,59,58,57,56,55,54,53,53,53,51,50,50,50,50,50,49,48,47,47,46,45,45,44,45,45,44,43,45,48,51,53,52,53,58,59,60,59,58,58,58,57,56,55,55,55,55,54,53,52,52,51,51,50,50,48,48,49,47,47,46,45,45,44,43,42,43,41,42,41,41,41,41,40,40,39,38,38,38,38,37,36,36,36,35,35,35,34,33,33,32,32,31,31,32,32,31,31,31,31,30,30,29,29,28,28,28,28,27,27,27,26,26,26,25,25,25,25,24,24,24,23,23,23,23,22,22,22,22,21,22,21,21,21,21,20,20,20,20,19,20,20,19,19,19,19,18,18,18,18,18,18,17,18,17,17,17,17,17,17,17,17,17,16,16,16,16,16,16,16,16,15,16,15,16,15,16,15,15,15,15,15,15,15,15,15,14,15,14,14,15,14,14,14,14,14,14,14,14,14,14,14,14,13,13,13,13,13,13,13,13,13,14,13,13,13,13,13,13,13,13,13,12,13,12,13,12,12,13,12,13,12,12,12,12,13,12,13,12,12,12,12,12,12,12,12,12,12,12,12,12,13,12,12,12,12,12,11,12,12,11,25,24,24,23,23,23,23,22,22,22,22,21,22,21,21,21,21,20,20,20,20,20,19,19,19,19,19,18
55,55,55,55,55,55,55,55,55,55,55,55,55,55,55,55,55,55,55,55,55,55,55,55,54,54,55,54,55,54,54,54,55,54,54,54,54,54,54,55,55,55,55,55,55,55,55,56,55,55,55,55,55,56,56,55,56,55,56,56,56,56,55,55,55,55,55,55,55,55,55,54,55,55,55,55,55,55,55,55,55,55,54,54,55,54,54,55,54,54,55,54,55,54,55,55,55,55,54,54,54,54,54,54,54,54,54,54,54,54,54,54,54,54,54,54,54,54,53,54,54,54,54,54,54,54,54,54,54,54,54,55,54,53,54,54,54,54,53,53,53,54,54,53,54,54,54,54,53,54,54,53,54,54,54,54,53,54,54,54,54,53,54,54,53,54,54,53,54,54,54,53,54,53,54,54,54,54,53,54,54,54,54,54,54,53,54,54,54,54,54,54,55,55,55,55,55,54,55,55,55,54,55,55,56,56,57,57,57,57,57,57,57,57,57,58,59,60,60,61,66,75,84,89,89,89,94,101,111,117,118,123,137,150,152,161,175,191,195,195,206,220,226,239,282,298,336,346,352,359,364,362,368,363,361,372,417,426,444,448,448,444,446,443,439,444,448,464,468,495,499,505,540,548,552,555,582,624,629,652,647,660,676,675,684,691,695,688,681,687,684,675,672,676,669,685,686,679,672,668,660,657,663,654,654,655,674,677,688,690,689,718,724,719,717,717,709,703,698,727,755,762,759,766,789,781,776,778,774,766,759,756,746,741,748,742,740,745,788,806,849,850,837,825,812,800,790,792,840,848,876,872,864,860,847,841,835,844,846,834,832,847,871,855,851,860,873,866,855,841,837,864,873,860,848,860,872,862,855,845,834,827,816,813,810,812,802,796,796,790,775,765,754,744,737,730,725,728,724,721,717,725,749,761,773,784,789,787,775,765,755,747,747,747,736,726,717,713,717,739,734,732,726,720,708,705,726,725,730,738,745,750,760,764,752,746,735,730,727,717,709,700,700,714,711,720,730,738,755,767,781,785,780,782,785,778,770,766,762,758,757,755,753,751,758,756,760,753,747,753,772,800,834,827,814,803,792,787,775,764,755,745,734,721,714,720,721,716,706,713,714,704,697,690,683,671,663,658,649,642,632,629,624,616,607,607,602,597,608,611,634,638,630,626,618,622,647,653,668,664,659,651,642,634,635,632,622,618,610,599,589,584,576,569,563,561,568,561,562,554,551,541,536,531,526,521,512,503,496,492,485,479,476,473,468,465,461,455,450,444,438,433,428,424,421,415,409,404,399,393,389,385,381,378,374,370,366,362,359,354,353,352,347,342,341,336,332,330,326,321,317,313,309,305,302,298,296,293,292,291,289,287,284,282,281,278,276,272,269,267,264,262,260,258,256,252,249,247,243,242,240,239,238,238,236,234,231,230,228,226,225,223,222,221,220,219,217,216,214,213,212,209,208,206,205,203,201,199,198,195,193,192,190,189,187,186,184,184,182,181,178,177,175,174,171,169,168,167,165,164,163,162,161,161,160,159,158,156,153,152,151,151,149,147,145,144,143,141,140,139,138,137,136,135,134,133,132,131,130,129,128,127,126,125,124,123,122,121,119,119,119,118,117,116,115,114,113,113,112,112,111,110,110,109,108,108,108,108,107,106,105,105,104,104,104,104,104,103,102,102,102,101,101,100,99,99,99,99,98,98,98,98,97,96,96,95,95,95,95,94,95,94,94,94,94,93,94,93,93,92,92,91,91,91,91,91,91,91,90,90,90,90,90,90,91,89,89,89,89,88,88,88,88,88,89,89,89,89,89,89,89,90,89,89,90,89,89,89,90,90,90,90,90,90,90,90,90,89,90,90,90,90,90,90,90,90,89,89,90,89,90,90,90,89,89,89,89,90,89,89,89,89,89,90,91,91,91,91,91,90,90,91,91,90,90,90,89,90,90,88,89,89,89,89,89,89,89,89,89,89,90,89,90,90,89,89,88,88,88,87,87,87,87,88,88,88,87,87,87,87,87,87,87,87,86,85,85,84,84,83,84,83,83,82,82,82,81,82,82,82,81,81,81,80,80,80,79,79,79,79,79,78,78,78,78,78,78,78,77,77,76,76,75,75,75,74,73,74,73,73,73,72,73,71,71,72,71,71,70,70,69,70,69,69,69,69,68,68,68,68,67,67,66,67,66,66,66,66,65,66,65,65,64,57,57,58,58,58,58,58,58,58,58,59,59,59,60,60,60,59,60,60,60,60,59,59,59,60,61,61,61
18,19,18,20,24,27,30,30,31,30,30,30,29,29,28,28,28,28,27,27,27,26,26,26,26,24,25,25,24,24,24,24,23,23,23,23,22,22,22,21,21,21,21,21,20,20,20,20,20,19,19,19,19,19,19,20,24,26,30,30,30,30,29,29,28,29,27,28,27,27,26,25,26,25,25,24,25,24,24,24,24,23,23,23,22,22,22,22,22,21,22,21,20,21,20,20,21,20,19,19,20,23,26,28,31,31,30,30,30,29,29,29,28,28,28,27,27,26,26,26,25,26,25,25,24,24,24,24,23,23,23,22,22,22,22,21,21,21,21,20,21,20,20,20,20,20,20,19,19,19,18,18,18,18,18,18,17,18,18,18,17,17,17,17,17,16,16,16,16,16,16,16,16,16,16,15,15,16,15,17,20,22,26,27,27,27,27,26,26,26,25,25,25,25,24,24,24,24,24,23,23,23,22,22,22,22,22,21,21,21,20,20,20,20,20,20,19,19,19,19,19,18,19,18,18,19,18,18,18,18,18,17,17,17,17,17,17,17,17,17,17,16,16,16,16,16,15,15,15,16,15,15,15,16,15,15,15,15,14,14,14,14,14,14,16,20,22,26,27,27,26,26,26,25,25,25,25,24,24,23,23,23,23,22,22,23,22,21,22,21,21,21,20,20,20,20,23,27,29,31,32,32,31,31,30,30,29,29,28,29,28,28,27,27,26,26,25,25,25,25,24,24,24,24,23,23,22,22,22,23,22,21,21,21,21,21,20,21,20,20,20,19,20,22,26,29,31,31,31,31,31,30,30,32,36,41,43,43,43,42,41,41,39,40,39,39,39,39,38,38,37,37,36,36,36,36,36,35,35,35,34,34,33,33,32,32,32,32,31,30,31,32,34,34,35,35,35,36,36,36,36,35,35,34,33,33,34,35,37,38,38,37,37,38,39,42,42,41,40,40,42,43,42,43,43,43,43,49,52,52,53,53,52,51,50,50,51,51,51,50,52,53,54,56,56,56,56,55,55,55,55,56,55,55,55,55,55,58,61,62,62,63,62,66,73,79,81,82,83,85,84,84,82,83,84,86,91,92,95,101,102,107,116,118,119,122,124,127,132,139,149,155,154,160,169,167,167,165,164,161,163,170,167,166,165,162,159,162,159,156,154,152,149,146,143,140,137,136,133,130,129,126,127,128,127,125,125,124,123,123,121,119,123,126,125,123,122,119,117,115,112,110,109,112,113,112,115,114,117,117,115,115,113,113,111,110,109,108,106,106,107,107,105,104,102,101,98,97,101,103,104,103,103,101,100,105,111,117,120,119,119,123,125,124,122,120,117,117,117,116,113,114,112,112,110,110,107,106,104,103,102,101,99,98,97,96,94,93,93,92,90,89,89,91,92,91,91,90,90,89,92,93,93,94,97,99,98,98,96,94,94,93,92,92,93,94,97,98,97,97,95,98,99,99,100,101,102,102,102,100,101,100,99,97,95,94,93,93,96,95,99,107,113,113,114,112,110,109,112,111,110,109,107,105,103,103,103,108,108,109,113,112,114,117,119,123,121,120,118,116,116,121,125,129,129,131,139,143,140,138,140,147,156,157,157,157,157,160,159,165,166,165,161,158,157,159,158,159,157,156,153,150,149,145,143,140,137,135,134,132,130,128,125,122,121,123,128,126,128,134,137,143,147,148,145,142,140,138,134,133,130,128,125,123,121,121,118,116,116,118,121,120,121,121,119,115,113,112,110,109,106,105,104,105,111,122,126,135,139,138,136,133,132,129,127,125,122,120,119,119,119,118,116,114,112,113,113,112,109,107,105,103,101,99,97,96,94,92,90,89,87,85,84,81,81,80,78,77,76,74,73,72,71,70,69,67,67,68,68,71,70,71,74,75,76,75,73,73,71,70,69,68,67,65,65,64,63,63,64,62,63,61,62,60,59,58,57,56,55,54,53,53,52,51,50,50,49,48,47,46,46,45,44,44,43,43,43,43,42,40,41,40,39,38,38,37,37,36,35,35,34,34,34,33,33,32,32,31,32,35,37,41,42,42,41,41,41,40,40,39,38,38,39,38,38,37,36,36,36,36,36,35,34,33,34,33,32,32,32,31,31,31,31,29,30,29,29,28,28,27,27,28,27,27,27,26,26,26,26,25,24,24,24,24,23,23,23,23,23,22,22,21,22,22,22,22,21,21,21,21,21,10,12,11,11,11,11,11,11,11,11,11,11,11,11,11,11,11,11,11,11,10,11,11,11,11,11,11,11,11,10
62,61,61,60,60,61,60,60,60,60,59,59,59,59,59,59,60,59,59,59,59,59,59,59,59,58,58,58,57,58,58,57,58,58,58,57,58,58,57,57,58,58,58,58,57,57,58,57,58,58,58,58,58,58,58,57,58,58,58,58,57,57,57,57,58,58,58,58,58,58,58,58,58,58,58,57,57,58,58,58,59,59,60,61,61,61,62,60,60,60,60,60,61,61,62,62,62,62,63,63,63,63,63,63,62,62,62,62,62,61,62,62,62,61,61,61,61,61,61,61,60,61,61,60,60,61,60,60,61,60,59,60,59,60,59,59,59,59,59,59,58,58,59,58,58,58,58,58,58,58,58,58,58,58,58,58,57,58,58,57,59,59,59,59,59,60,60,59,59,59,60,59,59,59,59,59,59,59,58,59,58,58,59,58,58,58,58,58,58,58,59,59,58,58,58,58,57,58,58,58,57,57,57,58,57,57,57,58,57,57,58,57,58,59,58,58,58,58,58,57,57,57,57,57,57,57,57,57,57,57,57,57,57,57,57,57,57,57,57,57,57,57,57,57,57,57,57,57,58,57,57,58,58,58,58,57,57,58,58,58,58,58,58,57,58,57,57,57,57,57,57,57,57,57,57,57,56,57,57,57,57,57,57,57,57,57,56,58,57,57,59,60,59,60,60,61,61,62,63,63,63,63,66,71,73,73,76,76,77,77,82,91,100,107,108,111,115,120,127,132,135,133,133,137,138,141,142,144,145,147,153,157,158,156,159,166,171,169,171,173,176,185,212,229,233,238,241,259,289,301,314,332,371,389,399,432,441,450,468,498,504,496,493,506,528,543,543,549,543,555,567,572,584,606,651,686,693,696,694,693,694,698,700,689,677,671,666,660,685,716,712,719,737,729,721,711,705,712,740,789,792,787,801,797,795,784,775,787,785,806,811,798,788,799,815,809,798,802,815,810,812,805,801,808,833,848,892,902,890,903,896,884,888,876,888,913,906,902,904,907,920,906,920,941,935,945,940,929,918,910,900,892,905,923,936,948,953,941,931,920,902,892,898,923,954,980,981,982,982,982,980,981,977,962,958,946,942,948,937,928,947,957,941,926,914,912,919,922,919,929,916,920,919,915,944,944,963,976,967,982,981,967,951,941,941,975,982,982,983,982,982,982,982,981,982,983,983,982,982,977,981,979,965,969,975,972,978,977,968,957,945,950,945,931,913,903,904,909,901,900,893,886,881,866,849,836,854,857,878,873,861,854,842,828,821,811,809,818,818,830,856,864,860,858,860,849,835,821,807,795,784,776,764,752,741,732,726,732,737,730,727,725,724,719,716,707,697,690,681,670,663,653,641,634,624,617,611,612,606,597,589,589,585,600,609,616,612,635,634,627,621,612,607,600,591,591,590,585,578,572,564,558,551,545,538,532,526,520,512,503,498,496,494,488,480,479,470,467,460,453,455,459,454,448,442,436,437,435,431,428,422,423,424,422,415,408,402,397,397,395,387,381,377,376,373,370,367,364,360,356,353,350,345,340,336,333,331,328,325,322,319,316,313,311,308,303,300,295,292,290,287,285,282,279,276,274,272,270,267,264,260,257,254,251,249,247,246,243,241,239,236,233,230,227,225,222,220,218,215,213,210,209,208,205,202,200,198,196,194,192,190,187,184,183,182,181,179,178,177,175,174,173,172,171,169,167,165,163,163,162,161,160,159,158,157,156,156,154,154,152,152,151,150,150,149,149,149,148,148,147,146,146,146,146,146,145,145,145,144,144,143,143,142,142,142,141,141,140,140,139,138,138,138,138,138,138,139,140,140,140,140,139,138,138,136,136,136,135,135,136,136,136,136,136,136,136,135,135,135,135,135,135,136,136,135,134,134,134,134,133,133,132,133,133,133,133,132,132,132,132,132,131,131,131,131,132,132,132,132,132,132,131,131,133,132,132,132,132,132,132,131,131,130,129,128,128,127,128,128,129,130,130,131,131,131,130,129,128,126,127,126,126,126,125,125,125,124,124,123,123,122,122,122,122,121,120,120,120,120,119,118,118,117,116,116,117,116,117,116,116,115,115,114,114,113,113,112,111,111,112,111,112,111,110,109,109,109,109,108,108,108,108,108,107,107,107,106,106,106,107,107,107,106,106,105,105,105,103,102,102,102,101,102,101,101,100,100,99,99,99,99,99,98,98,99,99,99,99,98,99,97,55,55,57,55,56,56,56,56,55,55,56,56,55,56,55,56,55,55,55,55,55,56,55,54,55,55,55,55,55,55
11,11,11,11,11,11,11,11,11,11,11,11,11,11,11,12,11,11,11,11,11,12,11,11,11,11,11,11,11,11,11,11,11,11,11,11,11,11,11,11,11,11,11,11,11,10,11,11,11,11,10,11,11,11,11,11,11,11,11,11,11,11,11,11,11,11,10,11,11,11,11,11,11,11,11,11,11,11,11,11,11,11,11,11,11,11,11,11,11,11,11,11,11,11,11,11,11,11,11,11,11,11,11,11,11,11,10,11,11,11,11,11,11,11,11,11,11,11,11,11,11,11,11,11,11,11,11,11,11,10,11,11,11,11,11,11,11,11,11,11,11,11,11,11,11,10,11,11,11,11,11,11,10,11,11,11,10,10,11,11,11,10,10,11,11,11,11,11,11,11,10,11,10,11,11,11,11,11,11,11,10,10,10,11,11,11,11,11,11,11,10,11,11,11,11,11,11,11,11,11,11,11,11,11,10,11,12,17,19,22,24,24,24,23,24,23,23,22,22,22,21,22,21,21,21,20,20,20,20,20,20,20,20,19,19,19,19,18,18,18,18,19,18,17,18,17,17,17,17,17,16,17,16,17,16,16,16,16,16,15,17,20,22,25,27,28,29,28,28,27,27,26,26,25,26,25,25,25,24,24,24,24,23,23,23,23,23,23,24,24,25,24,26,28,28,27,28,27,27,27,26,26,25,26,25,25,25,25,24,24,23,24,26,27,27,28,28,28,28,28,28,30,32,33,34,35,37,38,38,39,41,44,45,44,45,50,52,52,52,53,52,52,50,51,53,53,53,52,51,54,56,57,55,54,54,53,52,51,50,49,50,52,55,56,55,54,55,53,54,54,53,53,54,53,52,51,52,53,54,54,53,52,51,50,50,50,49,49,52,54,54,53,53,54,55,53,54,56,59,58,57,56,56,54,54,54,53,53,53,53,54,53,53,53,52,52,52,51,49,49,48,50,50,50,50,50,49,50,50,49,49,49,47,48,46,46,46,44,44,43,42,42,43,43,42,43,42,41,41,41,41,40,41,41,41,40,40,40,39,38,38,38,37,37,35,35,35,35,35,35,35,38,41,44,45,45,46,47,45,44,43,42,42,41,41,40,39,39,38,37,38,41,43,47,48,47,47,47,47,46,45,45,45,44,43,43,42,41,41,41,40,40,42,45,46,47,46,46,48,49,49,48,48,48,48,47,46,46,45,44,44,46,48,48,47,47,46,47,46,45,44,44,45,50,58,61,60,64,70,70,69,68,67,66,65,64,62,62,61,61,60,60,58,58,58,58,56,55,55,54,53,52,52,51,50,49,49,49,49,48,47,48,47,46,45,45,43,43,42,42,41,41,41,41,40,39,41,48,55,57,57,60,61,62,61,60,60,60,62,61,60,59,59,59,58,58,57,55,54,54,53,53,52,52,52,51,50,49,49,50,51,50,48,48,47,47,46,46,46,45,45,44,44,44,44,44,45,45,44,44,43,42,42,41,41,41,47,54,55,63,65,66,65,64,63,62,61,60,59,58,57,57,56,55,54,53,52,52,50,49,49,48,48,47,46,46,45,44,43,43,42,41,41,41,41,40,39,39,38,38,37,36,36,35,35,34,34,34,34,33,33,32,31,31,31,30,30,30,30,31,30,29,29,29,28,28,27,27,27,27,26,26,25,25,25,25,25,27,29,31,34,34,34,34,34,34,33,33,33,33,32,32,32,32,32,32,31,31,31,30,30,30,29,29,29,28,29,28,27,27,26,26,26,26,26,26,25,25,25,24,25,24,24,24,23,23,23,23,22,23,22,22,22,22,21,21,20,21,20,21,20,20,20,20,21,21,20,20,20,20,20,20,19,19,19,19,19,18,18,19,22,24,27,29,30,29,29,29,28,28,28,28,28,28,27,27,27,26,27,26,26,26,25,25,24,24,24,24,23,23,23,23,22,22,22,22,22,22,21,21,20,20,21,21,20,20,20,20,20,19,19,19,19,19,19,18,18,17,18,18,17,18,18,17,17,17,17,17,17,17,17,17,16,16,16,17,16,16,16,15,16,16,16,17,16,15,16,16,16,15,15,16,16,15,15,15,15,15,15,15,14,15,14,14,14,15,15,14,14,14,14,14,14,14,14,14,14,13,14,13,14,13,13,13,13,13,13,13,13,13,13,13,13,14,13,13,13,14,14,13,13,13,13,13,13,13,13,13,13,11,11,12,11,11,12,11,12,11,12,11,11,11,11,11,12,11,11,11,11,11,11,11,12,11,11,11,12,12,12,12,11
54,55,55,55,55,55,55,55,55,55,55,54,55,54,54,54,54,54,54,55,54,55,54,55,55,55,55,55,55,55,55,56,56,56,56,56,56,56,57,58,58,58,58,58,58,58,57,57,57,58,57,57,57,57,57,57,57,57,57,56,56,56,56,56,56,56,56,56,56,56,56,56,56,55,55,56,56,56,56,55,55,56,56,55,56,57,56,56,55,55,55,56,56,56,56,57,57,57,57,57,57,57,57,57,57,57,57,57,57,57,57,57,57,57,57,57,57,57,57,57,57,57,56,57,57,57,57,57,57,57,57,57,57,57,57,57,57,57,57,57,57,58,57,58,58,59,58,58,58,58,58,57,58,58,58,57,58,57,58,58,58,58,58,58,58,58,59,58,58,58,59,59,58,58,58,58,58,58,57,57,58,58,57,58,58,58,58,58,58,58,57,58,58,57,58,57,58,58,57,58,58,58,59,58,59,59,59,58,59,58,58,58,58,58,59,59,59,58,58,58,58,58,58,58,59,60,60,60,61,62,62,61,62,62,62,62,62,63,64,64,64,63,64,65,68,71,75,75,78,82,83,83,84,84,85,87,92,97,98,100,100,100,99,99,100,99,99,102,128,155,163,165,179,190,189,192,191,202,203,202,206,206,207,206,203,201,203,212,239,270,302,306,314,320,335,362,389,403,409,428,451,476,488,515,518,516,517,512,509,516,522,525,524,551,589,630,632,631,635,645,645,658,656,645,638,629,634,649,702,748,745,746,753,761,780,786,780,777,823,877,889,927,934,920,915,915,903,889,895,893,892,889,890,896,881,868,862,863,860,846,856,886,896,912,911,912,912,902,897,909,903,892,884,890,904,923,939,958,968,981,978,969,973,975,963,970,971,965,967,970,981,981,983,982,972,976,972,979,982,982,982,981,981,971,962,951,941,942,931,921,923,915,947,960,981,982,980,968,975,981,981,981,982,981,974,964,957,954,950,941,927,922,937,937,927,940,954,945,943,931,933,930,920,910,893,877,864,853,838,829,817,821,834,834,844,851,837,822,812,801,788,775,763,748,736,723,709,697,689,681,671,673,668,662,652,652,645,645,636,624,622,623,624,614,604,598,598,596,597,593,596,591,584,578,571,565,559,551,543,536,529,523,515,507,502,501,497,493,489,493,489,482,479,473,472,466,458,451,446,443,439,436,431,427,422,418,419,415,410,406,404,400,394,389,382,377,372,366,365,365,360,356,351,347,342,340,338,336,334,332,330,328,324,321,318,314,311,307,305,302,301,300,297,295,292,288,284,282,280,278,275,273,271,268,266,263,260,257,254,252,250,248,246,245,242,240,236,234,231,229,227,225,224,222,218,216,212,209,207,209,209,207,205,203,200,197,195,195,193,191,189,187,186,184,183,180,179,178,176,175,173,171,169,168,166,164,163,163,161,160,158,157,156,155,153,152,151,149,148,148,146,146,144,143,141,141,140,138,137,136,135,134,132,131,132,131,129,128,128,128,127,127,126,126,125,124,122,121,119,118,117,116,116,115,114,113,113,113,113,114,114,113,111,111,110,109,108,107,106,106,106,105,105,105,106,106,106,105,105,105,104,104,104,104,104,103,102,101,101,101,101,101,101,101,101,101,101,99,99,99,99,98,99,98,98,97,97,96,96,95,95,94,94,94,94,94,93,93,92,92,91,90,90,89,88,87,87,87,87,86,86,86,85,85,84,84,84,84,84,84,83,84,84,83,82,82,80,80,80,79,79,78,78,78,77,78,77,77,76,76,75,75,75,74,75,74,73,73,73,72,72,71,71,71,70,70,70,70,70,69,69,69,69,68,68,68,67,67,67,67,67,66,66,66,65,65,65,65,65,64,65,64,64,64,64,64,63,63,64,64,64,64,64,63,63,63,63,63,63,63,63,63,63,63,63,63,64,64,64,65,65,65,65,65,65,65,64,65,64,64,65,64,64,64,64,64,63,63,63,63,63,63,63,63,64,64,64,65,64,64,64,65,65,64,64,64,64,64,64,65,65,66,65,65,66,65,67,66,66,66,66,66,66,66,66,66,66,65,65,66,65,65,66,66,67,67,67,67,67,67,67,68,68,68,69,69,69,69,69,69,68,69,68,68,68,68,68,68,68,68,68,69,69,68,68,69,69,69,69,69,70,70,70,70,70,70,70,69,70,69,69,70,70,71,70,70,70,70,70,66,66,67,67,67,66,66,65,66,66,66,66,66,66,66,66,66,67,67,67,67,67,67,67,67,66,66,67,67,67,67,67
11,12,11,11,12,11,11,11,11,12,11,11,12,11,11,11,11,11,11,11,11,12,11,11,13,11,11,12,12,11,12,11,11,12,12,11,11,12,12,12,11,12,12,11,12,11,12,11,12,13,12,11,12,11,11,11,11,11,11,12,11,11,11,11,11,11,11,11,11,11,12,11,12,12,12,12,11,11,12,11,12,11,12,11,12,11,11,11,11,11,11,11,11,12,11,11,11,11,11,12,11,11,11,11,11,11,11,11,11,11,11,11,11,11,11,11,11,11,11,11,11,11,11,11,11,11,11,11,11,11,11,11,11,11,11,11,11,11,11,11,11,11,11,11,11,11,10,11,11,11,11,11,11,11,11,11,11,11,11,11,11,11,11,11,11,11,11,11,11,11,11,11,11,11,11,11,11,11,11,11,11,11,11,11,11,11,11,11,11,11,11,11,11,11,11,11,11,11,11,11,11,11,14,18,19,23,23,24,23,23,23,23,23,22,22,22,22,21,21,22,22,21,20,21,21,20,20,20,20,19,19,19,19,19,19,18,19,19,19,19,18,18,18,18,18,18,18,19,20,21,23,21,23,23,24,23,24,24,24,25,24,24,25,27,29,33,34,34,34,34,34,35,37,38,37,37,37,38,40,41,40,40,39,40,41,42,41,41,41,42,44,44,47,49,49,49,48,48,47,46,47,46,46,46,47,49,51,50,52,53,54,53,52,54,52,52,51,50,51,51,51,51,51,50,50,50,53,55,55,56,57,57,58,57,57,56,55,55,55,56,57,57,59,58,57,57,55,55,56,56,56,56,56,54,53,53,52,51,51,51,52,51,51,50,49,49,48,47,46,46,47,47,46,45,45,45,45,46,45,44,44,44,47,46,47,47,47,46,46,46,46,45,45,46,47,47,46,45,46,45,45,43,43,42,43,43,42,43,41,42,41,41,40,40,39,39,39,39,38,38,37,37,37,37,36,36,35,35,35,35,35,36,36,36,35,35,34,34,34,34,33,34,33,32,32,32,31,31,31,30,30,30,29,29,29,31,33,34,35,34,34,33,33,32,32,32,32,31,31,31,31,30,29,30,31,30,30,31,31,31,31,32,32,31,31,31,31,31,32,32,31,31,32,31,31,32,32,32,31,31,30,30,30,29,28,28,27,28,27,27,27,27,26,26,26,28,28,29,30,29,29,29,28,28,29,27,27,27,26,26,27,26,26,25,25,25,24,24,24,24,24,24,24,25,25,27,29,29,29,29,29,28,29,28,28,27,27,27,26,26,26,26,26,25,26,27,26,27,26,26,26,26,25,25,25,25,25,25,25,25,25,25,25,25,25,25,25,24,24,23,23,23,23,23,23,22,22,22,22,22,21,21,21,21,21,21,20,20,20,21,21,21,21,21,20,20,20,19,19,20,20,20,20,20,20,20,20,19,19,18,19,18,18,18,18,18,18,18,18,18,19,18,18,18,18,17,17,16,17,17,16,17,17,17,16,16,16,19,20,22,22,26,26,26,26,27,31,33,34,36,38,39,39,41,41,40,41,42,41,42,43,44,47,49,49,54,57,58,56,56,55,56,62,69,80,86,86,87,94,97,97,98,99,99,103,110,110,112,114,113,111,108,107,105,104,104,102,104,108,115,121,120,124,138,141,140,137,137,138,135,135,135,133,135,134,131,129,128,125,123,120,118,116,116,114,112,111,109,107,104,103,102,103,102,105,105,107,109,111,113,115,118,119,122,119,116,115,113,114,114,113,114,113,111,109,107,106,105,104,101,101,102,102,100,100,100,98,97,95,94,93,92,92,93,94,92,90,88,87,86,85,85,87,86,87,86,87,88,89,91,90,89,88,86,84,82,81,80,79,78,77,76,75,73,72,71,70,69,68,68,66,65,64,63,62,61,60,59,58,57,56,55,55,54,53,52,51,50,49,48,48,47,46,45,45,44,44,44,42,42,41,41,40,40,40,39,40,40,39,38,38,37,36,36,35,35,35,35,33,33,32,32,32,31,31,31,30,30,29,29,29,29,28,29,28,27,27,26,26,26,26,26,26,25,25,24,24,24,23,24,23,23,22,22,22,22,22,22,21,21,21,21,21,21,21,20,20,20,20,20,20,20,20,20,19,19,19,18,18,18,18,18,18,18,17,18,18,17,17,17,17,17,17,17,17,16,16,16,16,16,16,16,16,17,16,16,16,10,11,11,11,10,10,11,11,11,11,11,10,11,11,11,10,11,11,11,11,11,10,10,10,11,10,10,11,11,11,11,10,10,11
67,67,66,66,66,67,66,67,67,67,67,67,67,68,68,67,67,67,67,67,67,67,67,66,67,68,69,68,69,69,68,68,68,68,68,68,68,68,68,68,68,68,68,68,68,69,68,68,67,68,67,67,68,68,68,68,67,68,68,68,68,69,68,69,69,69,68,68,68,68,67,67,67,68,68,68,68,68,67,68,68,68,68,68,68,67,68,68,67,67,67,67,67,67,67,67,67,67,68,67,68,68,68,67,67,67,67,67,67,67,68,68,68,67,67,67,67,67,66,66,66,66,66,66,66,66,66,65,66,67,67,67,67,66,66,66,66,66,66,66,66,66,66,65,66,65,65,65,65,65,65,65,64,64,65,64,64,63,64,64,64,64,64,64,63,64,63,64,63,64,63,63,63,63,62,62,62,62,63,62,62,62,62,62,62,62,62,62,62,61,61,61,61,62,62,61,61,61,60,60,60,60,60,60,60,59,60,59,59,59,61,61,61,61,61,61,62,61,61,62,62,62,63,63,62,63,64,67,70,78,92,108,118,131,157,194,216,220,271,308,323,338,378,428,477,485,509,544,560,557,557,564,585,589,593,605,613,617,624,626,630,624,625,628,628,636,633,661,686,688,676,670,669,701,751,780,803,815,806,804,799,791,781,783,785,793,797,817,816,814,818,820,866,898,892,889,876,868,862,853,856,860,881,879,868,867,859,853,874,889,926,950,957,956,965,962,967,953,960,965,972,960,958,944,933,918,910,896,901,935,964,954,965,959,957,966,958,963,963,976,981,974,982,982,982,981,976,983,981,981,982,982,982,978,968,976,972,981,982,982,982,982,976,966,955,957,944,936,926,931,922,918,916,936,932,944,963,982,982,982,982,981,982,973,956,960,960,962,955,951,937,921,925,928,915,915,930,923,915,903,889,877,867,859,849,855,845,836,858,889,896,889,898,885,871,863,869,867,866,866,859,846,833,830,821,819,806,812,824,833,823,823,816,807,799,800,800,793,793,786,780,794,786,774,766,758,745,735,723,712,706,697,704,699,691,682,688,696,697,688,678,669,671,672,678,669,666,667,661,650,639,632,626,620,616,611,614,632,626,619,610,601,590,581,572,568,572,567,582,593,596,604,618,622,635,670,671,662,652,643,634,623,613,605,600,604,596,589,581,571,561,552,543,539,534,548,556,574,588,581,572,573,570,573,583,580,571,565,556,546,537,527,520,514,505,500,506,510,526,540,545,539,537,531,526,541,541,535,536,548,552,546,538,529,526,525,515,510,510,506,500,498,501,500,493,493,498,507,516,517,518,512,504,497,493,490,487,485,479,486,485,479,471,464,459,453,460,493,505,526,541,552,584,575,566,557,550,541,544,555,552,571,578,571,562,552,544,543,540,544,544,537,538,529,528,522,515,517,521,519,532,541,533,535,536,528,521,516,520,541,545,550,552,570,571,569,560,552,544,536,527,520,512,503,494,486,480,473,466,461,456,450,444,438,431,426,419,413,407,404,399,392,386,380,374,369,363,358,353,348,344,338,334,329,325,320,316,312,308,304,301,296,291,287,283,280,277,274,271,267,263,260,256,253,249,244,241,238,234,232,228,225,222,219,216,214,212,209,206,204,199,196,193,191,190,187,184,182,179,176,173,172,170,169,167,165,162,160,158,156,153,151,150,149,147,146,144,142,140,137,136,134,133,131,130,128,127,125,124,122,121,119,118,117,116,114,113,112,111,110,109,108,106,105,104,104,103,102,101,101,99,100,98,98,96,96,95,94,93,93,92,91,89,90,89,88,87,87,86,86,85,85,84,84,84,83,82,82,81,81,81,80,79,79,79,78,79,78,78,78,78,77,77,77,76,76,76,75,75,75,74,75,74,74,74,74,74,73,73,73,72,73,72,72,73,73,74,74,74,74,73,73,73,72,72,72,72,71,71,70,71,70,70,70,69,69,69,69,69,69,70,70,71,71,71,70,70,70,70,69,69,69,68,68,69,69,69,68,69,68,69,69,68,68,68,68,68,67,67,67,67,67,66,67,67,67,66,66,66,66,67,67,67,67,67,67,66,67,67,66,66,65,65,65,64,64,64,65,64,64,64,64,64,63,63,63,63,62,63,62,62,62,61,62,61,61,61,61,61,60,60,60,60,60,60,60,59,59,60,59,59,59,59,59,59,60,60,59,59,59,59,58,58,58,58,58,58,58,58,58,58,57,58,57,57,57,57,57,57,57,57,57,56,57,56,56,56,56,57,56,56,56,56,56,56,56,56,56,56,55,56
10,11,11,11,11,11,10,11,11,11,10,11,10,11,10,11,10,11,11,10,11,11,10,11,11,10,11,11,11,11,11,10,10,11,11,11,11,11,11,10,10,10,10,10,11,11,11,10,11,11,10,10,11,11,11,11,10,11,10,11,11,11,11,11,11,11,10,11,10,10,11,11,11,11,11,10,11,11,11,11,11,10,10,10,11,10,10,11,11,11,11,11,10,11,10,10,11,10,11,11,11,10,11,11,11,11,11,11,11,11,11,11,11,11,11,11,11,11,11,11,11,10,11,11,11,11,11,10,10,11,11,11,11,11,11,10,10,11,11,11,11,11,10,11,11,11,11,11,11,11,11,11,11,10,10,11,11,10,11,11,10,11,11,11,11,11,11,11,11,10,11,11,11,11,11,11,11,11,10,12,11,11,11,11,11,10,11,10,11,11,11,10,11,10,11,11,10,11,11,11,11,11,11,11,11,11,11,11,11,11,11,11,11,12,11,11,12,12,12,13,13,13,13,14,14,14,16,17,17,18,18,18,18,18,19,20,20,20,20,19,19,19,19,19,19,19,20,21,20,21,22,22,21,23,23,24,24,25,25,25,24,24,25,25,25,27,28,28,28,29,29,30,32,34,35,35,37,37,37,38,38,39,40,40,41,41,40,41,40,40,39,38,38,37,37,37,36,36,37,39,40,41,42,42,41,41,43,44,44,44,44,45,46,46,45,45,47,47,47,47,46,46,46,44,44,43,42,42,41,41,41,43,44,43,44,43,44,43,43,42,43,44,45,45,46,45,44,44,43,43,42,43,43,43,43,42,42,41,42,42,41,41,40,40,39,38,38,37,37,37,38,39,38,38,37,38,38,39,40,41,40,40,39,41,43,44,43,43,43,42,42,42,41,41,40,40,40,42,43,44,45,45,44,44,44,44,44,43,42,41,43,42,42,41,41,41,40,40,40,40,39,39,39,38,37,37,38,38,38,37,37,37,37,36,36,34,34,36,35,35,37,38,37,39,38,37,37,36,35,35,35,36,37,37,37,37,38,38,38,37,36,36,36,35,35,36,35,35,35,35,34,34,34,34,34,35,35,35,36,35,34,34,33,33,32,32,32,31,31,30,31,31,30,30,31,33,32,33,33,34,34,33,32,32,31,31,31,31,31,32,32,31,31,31,31,31,30,30,29,29,29,29,29,29,28,27,28,28,31,31,33,34,33,32,32,32,31,31,31,30,30,30,30,30,29,29,30,29,29,30,31,31,31,31,30,31,33,33,33,32,32,32,31,31,30,30,31,31,30,30,29,30,30,29,30,29,29,29,29,29,28,29,28,28,28,28,27,27,27,27,26,26,27,27,26,27,27,27,27,26,25,26,25,26,27,27,29,28,27,27,27,27,26,27,27,25,26,27,25,25,25,24,24,25,26,25,25,25,24,24,24,24,24,25,24,23,24,24,25,25,25,27,28,28,28,28,29,29,29,29,28,28,28,28,27,27,26,26,25,25,25,25,25,24,24,24,24,24,24,24,24,24,23,23,23,22,24,26,27,27,28,29,29,29,29,28,28,27,27,26,27,27,27,25,26,26,25,25,25,25,25,25,24,24,24,23,23,23,23,22,23,22,22,22,22,21,21,21,21,21,22,24,22,24,26,28,30,32,35,36,37,37,42,44,44,42,41,41,40,40,42,43,42,43,46,49,51,50,51,51,51,50,50,50,49,50,56,61,64,64,68,68,70,71,73,74,72,73,72,73,72,71,73,74,79,81,80,82,82,85,83,81,80,79,81,84,86,85,90,94,93,96,100,99,99,102,102,101,101,104,106,105,108,107,105,104,103,100,100,97,96,95,93,92,91,89,88,86,84,82,81,79,79,84,89,90,95,95,94,95,94,94,94,93,94,93,91,91,89,88,87,87,87,87,86,89,90,91,93,91,90,95,97,96,103,103,102,101,99,98,99,101,100,99,97,95,94,92,91,91,90,91,91,90,89,88,87,85,84,82,81,80,80,79,78,76,75,74,73,71,70,71,70,69,69,68,68,67,67,66,65,64,63,63,61,61,59,59,58,59,57,57,57,55,55,54,54,54,53,52,52,51,51,49,49,49,52,52,54,58,58,58,57,57,57,55,55,54,54,54,54,54,53,52,52,51,50,50,50,49,49,48,48,47,48,47,46,46,46,45,44,44,43,44,43,11,11,11,11,11,11,10,11,10,10,10,11,11,10,11,11,11,11,10,11,11,11,11,11,10,10,10,11,11,11,11,10,10,11,11,10
56,55,55,55,55,55,55,55,56,56,56,56,56,55,56,56,56,55,56,56,55,56,56,56,55,56,55,56,55,56,57,56,55,55,56,56,55,55,55,55,56,55,55,56,56,55,55,55,55,56,55,55,55,55,56,55,55,55,56,56,55,55,55,55,56,56,56,56,56,55,56,55,55,55,55,56,55,56,55,55,55,55,55,55,55,55,55,55,55,54,54,55,55,54,54,54,55,55,55,55,55,55,55,55,55,55,55,55,55,55,55,54,55,56,56,55,55,56,55,56,55,56,56,56,57,56,56,56,56,56,56,56,56,56,56,56,57,57,58,58,58,57,57,57,58,58,58,58,57,58,58,58,59,59,59,59,59,58,59,58,57,58,59,59,60,59,59,59,60,61,61,61,60,61,61,61,61,61,62,63,63,63,66,68,68,67,68,70,72,76,81,87,95,99,110,119,125,135,161,179,183,187,195,209,219,221,228,230,231,231,251,270,306,323,334,337,339,338,342,348,348,347,347,346,365,376,382,404,408,416,410,415,425,439,444,456,461,462,466,487,490,514,522,524,535,550,579,609,619,625,635,646,643,642,632,655,686,689,730,748,749,752,755,764,774,776,791,782,774,781,778,777,817,877,913,935,964,976,981,981,975,980,982,983,982,982,982,982,982,982,982,982,981,982,982,982,982,982,982,982,982,982,982,982,982,982,982,983,982,982,983,982,982,981,983,982,982,983,982,982,983,982,982,982,982,982,982,981,982,982,981,967,956,959,956,962,957,951,938,927,923,914,909,925,943,953,944,932,935,927,916,916,918,905,915,909,931,929,922,931,916,908,894,878,863,862,853,844,833,822,817,816,803,793,792,783,790,788,779,782,784,788,784,772,760,762,755,750,737,736,735,766,781,796,804,805,795,786,785,775,763,755,755,747,737,727,715,709,718,745,745,735,739,746,743,736,729,721,716,717,712,710,721,715,706,700,694,684,679,674,685,698,708,698,691,683,679,670,670,662,665,674,670,678,671,666,663,677,670,668,693,707,703,724,746,779,821,817,812,807,795,785,790,784,774,766,774,773,768,759,758,762,763,765,761,774,775,774,772,767,770,765,754,760,757,763,760,753,742,733,723,710,698,686,710,780,816,861,861,850,835,828,820,809,795,789,802,814,817,810,809,817,807,796,782,776,767,774,772,795,798,786,778,776,769,792,810,819,823,869,884,881,876,861,847,834,819,808,805,801,792,801,796,785,773,773,767,760,759,757,747,744,739,725,717,710,707,696,683,672,662,652,651,650,658,675,687,683,694,726,763,751,738,726,716,704,697,698,697,704,698,689,702,703,702,712,724,736,739,732,737,738,728,718,711,699,690,680,673,666,663,659,672,670,689,680,671,660,654,645,640,648,652,645,639,629,624,639,643,637,630,626,630,639,665,665,672,664,658,647,640,638,637,635,647,642,633,621,617,614,607,604,599,612,647,662,663,652,640,631,622,611,605,600,594,588,580,571,562,557,554,555,565,567,576,568,574,574,567,567,563,560,557,550,546,541,535,529,522,515,508,501,494,488,485,480,472,468,465,464,460,452,452,452,447,440,437,434,429,423,418,421,421,415,409,404,397,392,387,382,378,377,378,374,375,370,365,359,354,348,343,339,335,330,326,322,318,314,311,307,304,302,298,295,291,287,283,280,277,273,269,266,261,258,254,250,247,244,241,238,235,233,229,226,224,222,218,216,213,211,208,206,203,200,197,195,193,190,188,186,184,182,180,177,175,174,172,170,168,165,164,161,159,156,155,153,151,149,147,146,144,142,140,140,138,136,133,133,130,129,127,126,124,123,121,119,118,117,117,116,114,113,112,111,110,109,108,108,106,105,104,104,103,102,101,100,100,98,97,97,96,95,95,94,93,93,93,92,91,91,90,90,90,90,88,88,87,86,85,86,85,84,84,82,82,82,81,80,80,80,79,80,78,78,77,77,77,76,76,75,75,74,74,74,73,73,72,72,72,71,71,71,71,70,69,70,70,69,69,69,69,69,68,68,67,67,67,67,67,67,67,67,67,67,67,67,67,66,66,66,66,66,65,66,65,65,65,65,65,65,65,64,64,64,64,64,63,63,63,63,64,63,63,64,63,63,64,64,63,63,63,63,63,63,63,62,63,62,62,62,62,62,62,63,62,62,62,62,62,62,62,63,62,62,61,71,71,72,72,71,71,71,70,70,70,70,70,69,69,69,69,69,69,68,68,68,68,67,67,67,67,67,67,67,67,66,67,67,66,66,66
11,11,11,11,10,11,11,11,10,11,10,11,10,10,10,10,10,11,10,11,10,10,11,10,11,10,11,11,11,11,11,11,11,11,11,11,11,11,11,11,11,11,11,11,11,11,11,11,11,11,11,11,11,11,11,11,10,11,11,11,11,11,11,11,11,11,10,10,11,11,11,11,11,11,10,11,11,11,10,11,11,10,11,11,10,11,11,11,11,12,11,10,10,11,11,10,10,11,11,10,11,11,10,10,11,10,11,11,10,11,11,10,11,11,11,11,11,11,10,11,10,11,11,10,10,11,11,10,10,11,11,11,11,11,11,11,11,11,11,11,11,10,11,11,10,11,11,11,11,11,11,10,11,11,10,11,11,11,10,10,11,11,10,10,11,11,10,11,11,11,11,11,10,11,11,11,10,11,11,11,10,11,11,11,11,11,10,10,11,11,11,11,11,11,11,10,11,11,11,11,11,11,11,11,11,11,11,11,11,11,11,11,11,11,10,10,11,11,11,11,12,12,12,12,12,13,13,12,13,13,14,14,13,13,14,15,15,15,15,15,17,19,19,19,20,21,22,22,23,24,24,26,26,26,25,26,28,31,33,34,35,34,33,33,33,33,33,32,32,32,32,31,32,32,34,33,34,36,38,37,36,38,41,43,43,42,43,45,44,45,49,50,50,49,48,48,50,50,49,51,56,59,59,58,58,57,58,56,55,55,56,55,55,53,53,54,53,53,51,51,49,50,50,51,52,52,50,50,49,48,48,47,47,46,45,44,44,44,44,44,46,45,46,48,48,47,46,45,45,45,46,45,45,45,45,46,46,48,47,47,48,47,47,45,45,44,44,43,43,43,42,41,41,41,41,42,43,43,42,42,41,41,40,39,39,38,37,37,37,37,38,37,37,37,36,37,36,35,36,37,37,36,36,35,35,34,34,34,36,36,37,37,38,40,39,40,40,40,38,39,40,39,38,37,39,39,38,39,41,41,41,40,40,38,38,38,38,39,39,39,38,38,37,36,36,36,37,38,40,41,40,40,40,39,38,38,37,38,38,40,42,43,42,42,42,41,40,40,39,39,39,39,40,40,40,39,38,38,37,38,38,37,37,38,37,37,36,36,36,37,37,38,37,36,36,36,35,35,35,35,34,34,33,33,33,32,32,32,32,31,31,31,30,30,30,29,31,31,32,32,32,33,33,33,32,32,32,33,33,35,35,35,34,35,35,35,35,34,34,34,33,33,33,32,31,31,31,31,31,31,34,35,33,33,34,33,33,33,34,33,33,32,32,31,31,31,30,30,31,31,31,31,31,32,31,30,31,31,31,31,30,30,29,29,29,29,28,30,31,32,32,31,31,31,31,30,31,31,31,32,33,33,33,33,33,33,33,33,32,32,32,32,33,32,32,31,32,32,31,31,31,30,31,31,32,33,33,33,34,34,33,32,32,32,32,34,34,34,33,32,32,31,31,31,31,30,30,30,29,30,31,33,33,32,32,31,31,31,30,30,30,30,30,30,29,29,28,28,28,28,27,27,26,27,26,27,26,27,27,27,26,26,26,25,25,24,24,24,24,23,23,23,22,22,23,23,23,23,22,22,22,22,21,21,21,21,21,20,20,20,20,20,19,19,19,19,19,18,18,18,18,19,23,27,27,27,28,28,29,29,30,30,30,30,32,32,32,33,36,41,44,44,43,49,50,49,51,55,58,61,62,64,64,64,69,70,76,86,90,89,88,90,89,88,88,89,90,88,88,87,91,91,91,95,99,99,103,104,103,103,104,109,107,109,112,116,124,123,121,122,128,129,126,126,127,127,126,122,124,129,138,143,144,149,154,155,151,148,146,145,141,139,137,137,135,133,132,136,138,140,139,138,136,135,133,131,135,139,139,136,134,131,129,127,126,124,121,120,118,115,113,111,109,107,105,103,102,100,99,97,95,93,93,92,93,91,90,89,89,89,89,89,89,88,87,86,84,82,80,80,79,77,76,74,73,72,70,69,68,67,66,65,63,63,61,61,60,59,58,57,57,56,55,54,53,52,51,51,50,50,49,50,49,48,47,47,47,45,45,44,43,43,42,42,41,40,41,39,38,38,38,38,37,37,39,41,43,46,46,46,46,45,45,45,44,44,43,42,42,42,42,42,41,40,40,39,38,38,38,37,36,36,35,35,35,34,34,33,33,32,32,31,32,11,11,11,11,11,12,11,12,11,11,11,11,11,12,11,11,12,12,12,11,11,11,11,11,11,12,12,11,11,12,11,11,11,11,12,11,12,11
66,67,67,67,67,67,67,67,67,67,66,66,66,67,66,67,67,67,67,67,67,67,67,67,67,67,67,66,66,67,67,67,66,66,66,66,66,66,66,66,66,66,66,66,66,65,65,65,65,65,65,65,65,65,64,63,64,64,64,63,64,64,64,63,64,64,64,64,64,64,64,65,65,65,65,65,65,65,64,65,65,65,65,65,65,64,64,65,65,64,64,65,65,66,65,65,65,65,65,65,65,65,64,65,64,64,64,64,64,63,64,64,64,64,64,64,64,63,64,63,64,64,64,63,64,64,64,64,63,63,63,63,64,63,64,63,64,63,64,63,64,64,64,64,64,64,64,64,63,64,64,64,64,65,65,64,64,65,64,64,64,65,65,65,65,64,64,65,65,65,65,65,64,64,64,64,64,64,64,64,64,65,65,66,66,66,66,66,66,66,66,65,65,65,66,66,66,66,66,66,66,67,70,70,72,71,72,72,72,73,76,80,90,106,113,118,125,133,151,180,196,200,226,232,235,238,242,249,261,271,268,268,266,274,274,289,306,314,342,384,403,413,426,452,446,443,438,436,436,437,454,471,469,480,496,497,505,522,559,595,589,582,605,625,625,615,608,598,597,596,594,607,659,698,716,736,734,735,740,730,723,717,724,726,718,711,708,741,761,763,766,766,772,804,803,810,816,815,813,803,790,779,784,784,787,782,777,770,770,792,800,820,826,832,823,835,842,865,856,862,869,874,877,874,874,862,849,848,842,846,844,837,830,830,823,826,820,816,843,840,844,835,832,849,840,824,817,812,800,793,781,770,773,763,752,740,746,770,796,814,816,809,815,804,792,781,783,774,770,765,758,757,751,756,749,757,758,759,779,771,768,773,762,748,739,733,728,723,724,723,715,716,711,702,689,679,680,683,673,671,673,668,673,662,655,655,667,668,685,711,709,707,723,721,715,720,750,759,772,781,769,780,778,768,755,742,736,735,724,716,706,703,701,692,684,674,682,693,696,687,680,686,684,680,668,679,681,683,680,684,680,690,682,671,662,650,642,631,625,640,648,649,656,657,650,666,682,682,672,673,667,660,651,643,633,631,655,681,680,687,696,712,718,738,729,721,737,731,735,723,715,720,711,698,689,684,673,665,662,658,679,680,680,675,667,678,672,680,689,702,694,686,676,664,655,647,645,643,654,663,659,649,640,638,642,650,689,690,718,725,718,710,702,690,682,674,665,665,666,664,659,650,639,637,632,632,644,636,637,655,660,655,649,640,630,619,620,620,616,608,610,613,606,596,586,577,570,591,613,635,661,668,667,657,646,636,638,634,634,630,620,609,601,594,584,575,570,567,561,560,555,551,550,551,585,602,631,630,627,625,618,615,618,609,604,596,587,577,568,560,557,569,567,573,582,586,612,631,623,612,606,597,588,611,620,634,638,646,661,649,638,628,619,612,608,599,597,592,589,580,580,581,575,565,556,553,549,570,572,570,573,572,570,565,556,548,542,534,529,524,525,520,512,504,501,501,495,487,479,472,464,456,449,450,452,448,445,447,446,439,433,427,425,419,415,407,401,399,394,392,391,387,382,378,372,367,372,370,369,365,360,356,353,348,343,339,334,329,324,319,315,311,307,303,299,295,292,288,284,281,277,272,269,266,262,259,256,253,249,245,243,239,236,232,229,226,223,220,217,214,211,208,206,204,202,199,196,193,190,188,185,183,181,179,176,173,171,169,167,165,162,161,159,158,156,154,151,150,149,147,144,144,142,141,140,139,137,136,135,133,132,130,128,127,126,126,124,123,122,121,119,119,118,118,117,115,115,113,112,111,111,109,108,108,107,107,106,105,104,103,103,102,102,101,101,100,99,99,98,97,97,96,95,95,93,93,91,92,90,89,89,88,88,88,87,86,86,85,85,84,84,84,83,82,82,81,81,80,80,79,78,78,78,77,77,77,76,77,76,75,75,74,74,74,74,73,73,74,73,73,72,72,72,72,72,71,72,72,72,71,72,71,72,72,72,74,73,73,73,73,74,74,73,73,73,74,73,74,73,73,72,72,73,73,73,72,72,72,72,72,72,73,72,72,72,72,72,73,73,73,73,73,73,74,73,73,73,73,73,73,74,73,73,73,73,74,73,74,74,73,74,74,74,74,74,74,73,73,73,73,72,73,72,72,72,72,72,72,72,73,72,72,72,71,71,71,71,72,72,71,72,71,71,71,71,71,71,71,71,71,71,71,71,72,72,72,71,71,72,72,72,72,73,72,72,72,72,72,72,71,71
11,11,11,11,11,11,11,11,11,11,11,12,11,11,11,11,11,12,11,11,11,12,11,11,11,11,11,12,12,11,12,12,11,11,11,11,11,11,11,12,11,11,11,11,11,12,12,12,12,12,11,11,11,12,12,11,11,12,11,11,11,11,11,12,11,12,12,11,12,11,12,12,12,12,12,11,11,11,12,11,11,11,11,11,12,12,11,11,11,12,12,12,11,11,11,11,11,11,11,11,11,12,11,12,11,11,11,12,11,12,12,11,11,12,11,11,11,11,11,11,11,11,12,12,11,12,12,11,11,11,12,11,11,12,11,11,12,11,11,11,11,11,12,12,11,11,11,11,11,11,12,12,11,11,12,11,11,12,12,12,11,11,12,12,12,11,12,11,12,11,12,11,11,11,11,11,12,12,12,12,11,11,11,11,11,12,12,12,11,11,11,12,11,11,12,12,12,12,12,12,13,12,12,12,12,12,12,12,13,13,12,12,12,13,13,14,13,13,13,13,13,14,14,14,14,14,15,18,20,21,22,23,23,23,23,23,24,23,23,23,23,22,22,23,24,25,26,27,27,28,29,28,29,29,30,30,30,30,29,29,29,28,29,29,28,29,30,32,32,33,35,35,35,36,35,35,35,35,36,36,35,36,36,35,36,36,36,35,34,35,34,35,35,34,33,34,32,32,32,31,31,31,31,31,31,32,32,33,32,33,31,31,31,32,32,31,30,31,30,31,30,29,30,29,31,31,31,31,31,31,30,30,30,29,29,28,28,27,28,28,28,28,29,29,29,29,29,28,29,28,27,27,27,27,26,26,25,25,26,25,25,25,25,24,24,24,23,24,23,23,23,23,23,23,23,22,22,22,22,21,21,21,21,21,21,20,20,20,20,20,19,20,19,19,19,19,18,18,18,18,20,23,26,30,35,38,40,41,43,45,44,43,43,44,47,54,58,60,62,62,64,65,67,71,75,77,77,82,85,86,88,89,86,85,84,86,90,92,94,97,96,93,93,92,92,91,91,91,91,89,89,90,92,94,93,93,97,97,100,102,101,101,100,100,101,101,108,113,113,114,112,110,107,106,104,103,100,98,96,95,94,93,91,89,87,86,85,84,82,81,79,79,76,76,78,85,88,91,95,96,94,93,91,90,89,88,88,86,84,83,82,80,78,77,76,74,73,72,71,70,69,67,66,65,64,63,62,61,60,59,58,57,56,55,54,54,53,51,51,50,49,48,47,47,47,46,45,44,44,43,42,42,41,40,39,39,38,38,37,37,37,36,36,35,35,34,34,34,33,32,33,32,31,31,30,30,30,29,29,29,28,28,28,27,28,27,27,26,26,26,25,25,25,25,24,24,23,23,23,23,23,22,21,22,22,21,21,21,21,21,20,21,20,20,21,19,19,19,19,19,19,20,18,19,18,18,18,18,18,18,17,17,17,17,17,18,17,17,17,16,16,16,16,17,16,16,15,16,16,15,15,15,15,15,15,15,15,14,14,15,14,15,14,14,14,14,15,14,14,14,14,14,14,14,14,13,14,14,13,14,13,13,14,14,13,13,13,13,13,13,13,13,13,13,13,13,13,13,13,12,12,12,13,12,12,12,12,12,12,12,12,12,12,13,12,12,12,12,11,12,12,13,12,11,11,12,11,12,12,11,11,11,12,12,11,12,12,12,12,12,12,12,12,12,12,12,12,15,19,21,23,25,25,24,24,25,25,24,24,23,24,23,24,24,23,23,23,23,22,22,22,22,22,22,21,21,21,21,21,21,21,20,20,20,22,27,30,32,34,33,34,32,33,34,37,40,41,42,46,49,49,48,48,47,46,46,45,45,44,43,43,42,42,42,42,42,42,43,45,45,46,45,45,44,44,43,42,42,41,41,41,40,40,39,39,38,37,37,36,35,35,35,34,34,36,41,45,45,48,49,47,47,49,52,52,55,55,54,53,53,52,51,50,49,49,47,47,46,46,46,44,44,45,46,46,47,45,45,44,43,42,42,41,40,40,39,39,38,37,37,36,37,36,35,34,34,33,33,32,32,31,31,31,30,30,29,29,28,28,29,28,27,27,26,26,25,25,25,25,25,24,24,25,24,23,23,23,22,23,22,21,22,22,22,21,21,21,21,20,20,20,19,19,19,21,21,19,19,19,19,18,18,19,18,18,17,18,18,18,17,17,11,11,11,11,11,11,12,12,11,11,11,12,12,12,12,12,12,11,11,12,11,11,12,11,12,12,12,12,11,11,11,11,11,11,11,11,11,11,11,11
72,72,72,71,71,72,71,72,72,71,71,71,70,71,71,71,71,71,71,72,70,71,71,71,70,70,70,71,71,71,71,72,72,71,71,71,71,71,70,70,70,70,70,70,71,71,72,71,71,72,71,72,71,71,71,71,71,71,71,72,71,72,71,71,72,72,72,71,72,72,71,71,72,71,71,71,72,72,72,72,72,72,72,72,72,72,72,72,71,72,72,73,72,72,71,71,72,72,72,72,72,72,73,73,73,73,73,73,72,72,72,73,73,72,72,74,72,73,72,72,72,72,72,72,72,71,72,72,72,71,71,71,72,71,71,72,72,71,71,72,72,72,71,71,71,71,71,71,71,70,70,70,70,70,70,70,71,70,70,70,70,71,70,71,71,71,72,71,70,71,70,71,70,71,70,70,70,70,69,70,70,69,71,70,71,71,70,70,70,71,70,70,70,71,74,79,83,86,87,93,105,114,121,122,125,127,160,191,209,211,225,239,253,265,269,315,346,356,362,371,399,412,452,498,514,509,514,513,528,548,550,570,605,623,618,633,638,646,646,659,656,668,669,659,653,660,668,666,657,653,688,709,699,709,725,735,736,731,721,718,708,704,699,710,721,710,705,700,708,709,711,721,743,757,747,740,731,728,731,731,725,725,722,718,716,711,726,728,746,793,800,839,847,859,857,846,835,822,818,813,807,801,799,789,809,814,803,796,798,808,831,857,862,853,845,830,833,844,847,835,824,812,803,792,786,773,760,748,740,750,753,753,746,737,731,719,711,715,715,739,739,731,723,735,728,739,781,784,799,791,776,763,752,746,738,726,722,722,732,737,729,722,710,698,693,688,682,692,701,689,685,680,678,672,663,652,640,629,618,607,596,585,576,566,557,548,542,535,526,518,509,500,491,484,476,469,462,455,448,441,434,429,423,417,411,404,399,394,387,380,378,376,371,366,361,357,352,348,345,341,337,332,327,322,316,311,306,304,300,295,290,286,284,280,276,272,268,263,260,257,253,250,247,244,240,237,233,230,228,224,221,218,216,214,211,208,206,204,201,199,197,195,192,189,187,184,182,179,177,176,174,172,169,167,165,164,162,160,159,158,157,156,154,153,152,150,150,148,148,146,145,144,143,142,141,140,139,139,137,136,135,134,133,133,132,131,131,130,129,129,128,127,126,125,124,123,122,121,120,119,118,118,117,116,115,114,114,114,113,113,113,112,111,112,111,110,110,109,109,108,108,107,107,107,106,105,105,105,105,106,105,104,104,104,104,104,104,104,104,103,103,104,103,103,103,102,102,101,101,101,99,99,98,98,98,97,97,97,97,96,96,96,95,95,94,95,94,94,94,95,94,94,94,93,93,92,92,91,91,90,90,90,90,92,96,98,99,99,99,99,100,99,98,97,97,104,109,109,110,109,112,112,112,114,116,115,114,113,112,111,110,109,107,107,106,106,105,105,105,104,104,105,106,106,109,111,110,112,112,113,112,112,113,111,111,112,112,113,114,113,113,115,119,122,123,122,121,121,120,120,119,119,119,119,119,118,117,115,115,114,113,112,111,111,111,110,109,108,107,106,104,103,102,101,100,100,98,98,96,96,95,95,95,95,95,93,93,93,92,91,90,89,89,88,88,87,87,87,85,85,85,84,84,84,84,83,83,83,83,82,82,81,81,80,81,81,81,81,80,80,80,79,78,78,78,78,78,78,78,79,80,78,78,78,79,78,78,77,77,77,77,76,76,76,76,75,74,74,73,73,75,73,73,73,73,73,73,73,73,72,72,72,72,72,73,72,72,72,72,72,72,72,72,72,73,73,72,72,72,71,72,71,71,71,72,71,72,72,72,72,72,72,71,71,72,72,72,72,71,71,70,70,71,70,70,70,70,70,69,70,70,69,70,70,69,69,70,70,70,70,70,70,69,69,69,69,69,69,69,69,70,69,69,69,69,69,69,69,69,69,69,68,68,68,68,68,68,68,67,68,68,68,69,69,68,68,68,68,67,67,67,67,67,67,67,66,66,65,65,65,65,64,64,64,64,64,64,64,63,63,63,63,63,63,63,62,62,62,62,62,62,61,61,61,62,61,61,61,61,60,61,61,61,60,60,60,60,59,59,59,59,59,59,59,59,58,58,57,59,58,58,58,58,58,58,58,58,58,57,58,57,57,57,57,57,57,58,57,57,56,57,53,53,53,53,53,53,53,52,53,53,53,53,52,52,53,53,53,53,53,53,53,53,53,52,53,53,52,53,52,53,53,53,53,52,53,53,52,53,53,53
