17,17,18,18,17,17,18,18,18,18,18,18,17,18,18,18,17,18,18,17,18,18,18,18,18,18,19,18,18,18,18,18,19,19,19,19,19,19,19,18,19,18,19,18,18,18,18,19,19,19,19,19,19,19,19,19,19,18,20,19,19,19,19,19,19,19,19,19,19,19,19,19,19,18,19,20,20,20,19,19,19,19,19,20,20,19,19,19,20,19,20,19,19,20,19,19,19,20,19,19,19,19,19,20,20,19,20,19,19,19,19,20,20,20,20,19,19,19,19,19,19,19,19,19,19,19,19,19,19,20,20,20,18,19,19,20,19,19,19,19,20,19,19,19,19,19,19,19,19,19,19,18,19,19,18,19,19,20,20,19,19,19,19,19,19,19,20,20,20,20,19,20,19,19,19,19,19,19,19,18,19,18,18,19,19,19,20,19,19,19,19,19,18,19,19,18,19,19,19,19,19,19,18,19,18,19,18,18,18,18,18,18,18,19,19,19,19,19,19,19,18,19,18,18,18,19,18,18,19,19,19,18,18,19,18,19,18,18,18,18,18,19,18,19,18,18,19,18,18,19,18,18,18,18,18,19,18,18,18,18,18,18,18,18,19,19,18,18,18,18,19,18,18,17,18,18,18,18,18,17,17,17,18,17,19,17,18,18,18,18,18,17,18,18,19,19,21,21,21,20,21,21,21,23,23,23,23,24,23,23,23,22,23,22,23,23,22,22,22,21,22,21,21,21,21,21,21,21,20,21,20,21,20,20,20,20,20,20,20,19,20,20,20,20,21,20,21,23,24,24,23,23,23,23,23,23,22,23,23,23,23,24,23,23,22,23,23,23,23,23,23,22,22,24,23,24,25,26,25,25,24,25,25,24,24,24,24,24,23,24,23,23,23,23,23,24,24,23,23,23,23,23,22,23,25,26,26,26,26,26,27,26,27,28,30,30,30,31,32,35,38,40,41,44,46,50,52,56,61,65,67,69,69,70,70,71,74,74,73,71,70,69,68,68,67,67,70,74,81,84,89,95,94,97,96,96,97,96,94,95,95,97,100,105,117,126,134,137,136,136,137,137,141,141,141,142,143,139,140,146,152,156,155,153,155,172,191,201,210,228,237,240,241,251,260,259,263,263,261,260,271,271,279,280,280,294,304,312,309,304,309,329,346,350,353,349,354,373,375,405,441,464,463,481,477,468,466,461,452,456,462,453,459,477,476,480,487,483,477,468,467,463,461,458,449,447,451,470,486,480,517,548,556,565,563,562,555,544,549,552,584,594,620,669,692,699,707,700,720,744,745,772,772,792,785,775,764,781,777,781,782,785,780,771,776,770,764,754,747,751,742,740,728,720,708,693,679,668,656,644,634,631,629,618,613,632,655,665,682,672,664,660,657,673,672,659,662,659,660,660,660,656,654,647,648,639,632,622,614,602,594,587,580,575,565,555,544,542,544,545,537,527,522,514,512,512,516,515,511,501,492,487,503,535,563,567,561,562,573,576,579,575,567,569,558,547,546,546,537,528,522,516,507,504,496,489,487,498,491,493,494,490,485,478,473,471,468,465,458,450,445,442,452,461,460,473,488,495,491,484,475,474,483,485,490,484,490,494,491,491,488,485,480,472,462,455,445,441,432,426,424,419,418,412,409,405,402,405,419,464,476,484,494,497,505,514,510,501,493,483,478,474,470,465,467,459,456,449,448,444,442,439,442,445,445,448,444,436,427,423,419,411,405,401,402,402,407,423,427,435,453,453,451,461,468,466,467,464,459,455,454,444,443,436,437,431,431,427,419,417,420,419,434,436,429,433,448,467,470,482,477,470,464,463,462,455,447,438,439,438,434,435,427,427,429,421,417,410,411,411,411,407,400,393,389,390,388,387,383,378,372,365,370,368,372,374,370,364,362,363,363,362,356,358,356,349,346,349,357,354,354,358,353,347,342,341,335,343,349,351,362,378,370,366,368,370,372,369,373,374,368,370,370,372,372,374,367,362,358,359,355,350,347,340,336,332,330,326,321,322,315,308,304,300,298,303,305,299,295,289,288,282,277,287,307,321,327,337,338,338,334,333,331,334,333,330,334,338,333,346,347,342,336,331,325,322,326,327,324,323,318,317,311,307,308,309,309,308,311,305,303,315,318,313,316,330,328,330,326,327,334,330,323,324,322,321,317,316,313,315,311,314,337,348,349,344,350,353,353,348,351,349,344,342,338,333,332,333,326,320,317,313,308,304,301,295,293,295,292,292,288,289,288,290,300,16,17,17,17,16,16
87,87,87,86,85,86,88,88,88,87,86,86,86,86,86,85,85,85,85,86,86,86,86,86,86,86,87,87,87,87,87,86,87,87,88,87,88,86,86,87,87,87,86,86,86,86,86,88,88,87,88,87,88,89,89,89,88,88,88,87,88,89,88,89,87,88,87,89,90,90,89,89,89,88,90,91,91,90,89,89,90,90,90,90,89,90,88,89,91,90,89,89,89,88,88,89,88,88,88,87,87,89,90,90,90,89,89,87,87,88,88,87,87,87,86,87,88,88,89,88,87,87,87,87,87,87,86,85,86,87,89,88,88,88,88,88,88,89,87,88,88,88,88,88,90,88,89,88,87,88,88,88,88,88,88,88,89,90,91,90,90,89,88,90,92,91,91,91,91,90,90,90,90,90,89,89,90,87,88,87,87,87,87,86,88,90,90,90,90,88,89,88,88,88,88,87,87,87,88,88,88,88,87,87,88,88,88,87,88,87,86,87,88,89,88,88,88,89,89,90,89,89,89,88,88,88,91,90,90,90,89,89,89,91,90,89,90,88,88,90,92,92,91,91,91,91,91,93,93,94,97,99,99,99,101,101,102,101,104,106,106,108,109,112,115,115,116,117,117,119,121,124,126,129,133,136,141,147,148,154,156,159,159,161,167,170,170,168,167,167,167,174,175,179,181,185,186,186,201,207,205,207,212,212,210,208,206,204,203,218,239,247,246,267,284,286,297,299,312,325,325,320,315,320,322,327,331,354,378,389,389,395,395,396,403,416,412,409,407,407,404,398,391,392,387,383,378,380,380,386,392,401,409,409,408,411,409,415,416,417,414,414,422,431,439,434,430,429,430,434,430,440,448,445,442,446,442,440,434,430,432,432,426,419,413,412,416,414,408,403,401,412,419,420,425,444,458,479,494,491,500,518,521,516,515,508,501,493,494,488,483,476,475,476,472,469,462,457,449,441,437,435,431,425,419,411,405,402,395,389,382,377,370,364,361,356,350,345,341,336,336,335,332,328,323,321,317,312,308,305,301,297,295,290,286,283,281,280,278,274,270,267,263,258,254,250,248,243,241,238,234,231,228,224,222,220,216,214,211,208,205,203,201,198,195,193,190,188,187,189,190,190,187,186,184,182,180,178,176,175,173,172,171,169,168,168,167,165,164,161,162,161,160,159,158,156,154,154,153,155,155,154,153,151,154,153,153,151,151,152,151,151,153,154,157,157,161,166,172,170,168,170,171,170,170,173,176,176,174,173,177,178,180,186,184,184,184,189,195,195,193,191,194,194,195,195,196,201,202,206,213,214,212,212,215,223,228,233,233,231,231,232,233,236,234,232,231,234,236,239,239,240,240,240,240,244,248,251,253,252,249,248,253,255,250,248,248,247,250,255,255,254,257,261,265,266,266,263,264,265,266,267,270,268,268,268,266,266,267,265,264,263,261,259,260,264,263,262,262,262,262,261,263,262,261,259,257,259,261,258,256,254,253,254,257,256,255,251,247,247,246,246,245,246,243,239,235,237,239,239,235,233,234,236,235,233,230,229,227,229,229,228,226,225,224,225,226,225,225,224,223,222,221,219,218,216,219,218,219,221,222,218,218,216,214,214,212,209,207,205,206,208,209,206,206,208,205,202,202,202,199,196,193,192,192,194,191,189,189,187,187,191,190,188,187,187,185,187,190,188,186,183,182,182,181,178,176,174,172,173,173,171,170,170,168,166,168,166,166,167,168,165,165,163,162,161,159,157,157,159,160,158,156,155,154,154,155,154,152,151,149,148,148,148,148,145,143,142,141,144,143,142,142,144,146,146,145,144,143,143,141,143,144,142,141,140,141,140,140,138,137,135,135,133,133,132,131,128,128,128,128,129,128,127,127,126,125,125,128,127,126,125,124,126,124,124,127,126,126,127,126,127,127,127,127,127,127,126,126,126,127,128,127,129,128,128,128,126,126,125,125,124,123,122,121,120,121,121,120,120,120,120,118,118,118,117,116,114,116,117,116,115,115,115,114,115,114,113,113,112,112,112,111,110,108,108,108,108,106,107,108,107,107,107,106,106,106,106,107,106,105,107,106,108,108,108,106,106,108,108,111,112,111,112,113,112,112,111,111,110,110,113,113,112,111,110,112,112,112,111,113,114,114,114,116,116,117,117,117,117,116,117,120,119,118,121,122,121,120,120,119,119,120,121,120,120,120,121,121,121,121,119,118,117,117,119,118,118,117,118,117,118,118,118,117,115,115,115,116,114,114,114,113,114,113,93,93,92,92,93,93
16,17,17,17,17,17,17,18,17,17,17,17,16,17,16,16,16,17,16,16,18,17,17,17,17,17,17,17,16,17,17,16,16,16,17,17,17,17,17,17,17,17,17,17,17,17,16,16,17,16,17,16,16,17,17,17,16,17,17,17,17,17,17,17,16,17,16,16,17,17,16,17,17,17,17,17,17,19,18,18,18,18,18,17,17,17,17,17,17,17,17,17,17,17,17,17,17,17,17,18,19,18,18,19,19,19,19,18,18,19,18,18,18,18,18,18,18,18,18,18,18,18,19,19,18,17,17,18,18,17,18,18,17,17,18,17,17,18,17,17,18,18,18,18,18,18,19,18,18,18,18,19,18,18,18,18,18,18,18,18,18,18,18,18,18,18,18,18,19,19,20,19,19,19,19,18,19,18,19,18,19,18,18,18,18,18,19,19,19,19,20,19,19,19,18,18,19,19,19,19,19,19,19,19,18,19,19,19,19,19,19,19,19,18,19,19,20,20,20,20,20,20,20,20,20,19,19,19,19,19,19,20,20,20,20,20,20,19,19,19,18,19,19,19,18,19,21,21,21,21,21,22,22,22,23,24,23,24,23,24,24,24,25,26,26,26,28,28,30,32,32,32,34,39,41,46,52,56,56,54,54,52,52,51,51,50,50,54,57,59,61,61,61,65,74,83,85,86,85,84,83,83,82,81,81,86,94,101,104,105,103,101,102,106,114,114,112,112,111,113,112,112,114,125,141,159,173,176,179,193,202,218,234,236,238,258,263,260,258,261,286,354,430,477,474,489,492,486,481,493,516,513,526,553,596,624,629,638,652,668,676,695,732,767,766,778,790,787,801,815,808,809,796,788,795,797,794,796,793,792,780,782,775,777,781,768,783,788,779,782,776,770,755,754,754,755,759,749,740,761,781,783,776,768,766,754,743,728,728,728,716,704,695,682,679,674,666,659,660,647,637,649,675,679,683,691,699,715,724,722,717,707,693,679,689,708,707,720,720,712,698,696,716,715,710,704,696,690,692,686,698,716,711,729,734,724,710,701,699,692,691,684,677,669,663,652,639,631,625,618,639,671,689,677,664,651,650,656,664,660,647,642,633,636,640,634,639,646,638,628,622,609,598,588,578,582,586,647,720,743,735,733,765,791,802,810,808,817,810,799,795,812,854,866,871,892,904,907,898,880,872,856,842,831,830,829,816,803,793,794,806,801,795,798,792,779,763,760,758,748,755,757,759,757,754,758,755,745,752,752,741,731,731,725,714,722,727,721,720,718,713,705,696,687,680,675,681,692,686,694,680,670,663,656,649,641,630,631,636,622,611,602,599,587,578,574,565,568,572,572,574,565,570,572,573,568,565,560,559,554,546,542,536,525,514,506,496,491,490,486,482,476,471,469,471,466,468,471,470,476,479,480,475,468,470,470,470,468,464,461,458,453,447,442,436,436,431,424,419,413,405,404,401,402,402,396,394,396,391,409,419,420,429,431,433,431,424,418,422,417,411,410,412,412,411,407,403,400,396,393,388,385,382,375,392,422,429,425,422,425,435,442,448,451,456,451,449,447,443,440,434,439,443,444,443,437,429,422,417,437,473,480,499,510,516,514,506,496,493,511,540,563,563,578,596,597,596,597,595,589,584,576,577,587,583,581,578,578,574,567,568,586,619,624,623,635,631,645,659,670,676,675,672,668,661,654,646,636,625,616,607,597,588,578,568,559,550,542,532,524,514,505,497,490,483,476,468,460,452,446,439,432,426,420,412,406,401,395,389,383,376,369,364,359,354,348,342,338,334,330,326,321,316,310,305,301,296,291,286,281,276,272,269,266,262,257,253,249,246,242,239,234,229,226,222,219,216,212,208,205,201,199,196,192,189,185,182,179,175,172,168,165,162,160,157,153,151,149,146,142,139,137,134,132,130,127,124,122,120,118,116,114,113,110,108,106,104,102,100,98,96,94,93,92,92,90,89,87,86,84,83,81,80,79,77,75,74,74,74,73,71,71,69,69,68,68,67,66,65,64,63,63,62,61,60,60,60,60,59,58,57,57,56,56,57,57,56,55,55,54,56,55,55,54,54,54,54,55,54,54,53,52,52,51,51,51,51,51,50,50,52,54,53,53,53,53,53,53,52,52,51,51,51,52,54,55,55,54,54,54,55,55,55,54,53,52,52,53,54,54,54,54,55,56,56,55,54,54,54,54,55,56,55,56,55,55,56,56,56,57,56,56,56,57,59,59,59,59,59,59,59,60,60,18,18,18,18,19,18,18,18
93,92,92,91,91,90,91,91,91,91,90,90,90,90,90,90,89,89,90,89,91,92,92,91,90,90,90,91,90,90,90,90,89,90,93,91,92,91,91,91,91,91,91,90,90,90,90,90,90,91,90,90,89,89,90,89,89,89,89,89,88,90,91,91,90,90,90,90,90,90,90,89,89,89,89,91,92,91,90,90,89,90,90,90,89,89,89,89,90,91,90,90,89,90,89,90,91,90,90,91,90,90,91,93,92,92,93,91,91,91,93,92,91,90,90,91,91,91,90,90,89,89,89,91,91,91,91,90,90,91,91,92,92,91,90,90,90,91,90,90,89,89,88,89,90,90,90,89,89,88,89,89,89,89,88,87,86,87,89,90,89,89,88,89,90,92,91,90,90,90,90,90,91,91,91,90,89,91,90,91,90,89,89,89,89,91,93,92,92,91,91,89,91,90,89,89,89,88,89,89,89,89,88,87,88,88,87,87,88,88,87,88,88,91,90,90,89,89,89,89,89,88,88,89,91,91,91,93,93,94,93,92,92,92,92,92,91,91,90,90,92,95,94,95,95,94,94,94,94,96,96,96,95,95,96,95,95,94,93,94,95,98,97,96,96,97,97,97,97,98,97,98,98,98,98,98,98,97,96,96,95,96,99,99,98,98,96,96,96,95,96,95,94,95,96,96,96,97,99,99,99,99,100,101,100,100,99,98,98,100,100,102,102,102,102,102,102,101,100,99,99,99,99,99,98,97,98,98,98,98,98,99,98,97,98,98,98,100,101,100,100,100,100,107,114,114,116,118,120,120,120,118,120,122,126,128,127,126,127,127,129,131,130,128,130,136,134,136,136,136,134,136,138,140,140,144,145,146,149,148,148,148,147,145,149,154,152,153,153,154,153,153,152,154,156,157,155,154,152,153,156,158,161,162,160,161,160,159,162,162,160,160,163,166,164,164,162,161,160,159,160,159,158,158,160,161,160,162,162,162,164,166,169,169,169,168,169,168,170,169,168,164,164,165,168,169,168,166,165,167,164,164,165,164,163,163,162,163,164,164,166,164,162,163,166,168,167,166,166,167,169,168,166,166,166,165,165,166,167,166,166,167,168,169,169,167,167,170,170,171,174,176,175,174,172,170,169,167,168,167,165,165,169,171,172,171,170,168,166,165,169,172,173,173,171,171,173,172,171,170,171,171,168,169,167,165,163,162,161,164,166,169,169,167,168,166,165,167,167,167,166,166,164,162,161,160,159,159,165,166,165,164,162,161,162,161,159,158,159,161,163,165,164,163,160,159,159,163,164,161,161,159,158,161,160,159,158,156,153,152,152,150,149,149,146,144,146,145,144,143,142,141,141,143,142,141,140,140,141,141,142,141,141,141,141,141,142,143,142,141,141,140,142,142,141,140,138,137,137,139,137,137,136,134,133,133,133,131,129,129,128,129,131,129,128,127,126,127,125,125,123,123,122,122,125,126,124,123,121,120,121,122,122,121,119,119,118,118,117,116,115,114,112,115,117,117,117,115,114,113,115,115,114,115,117,115,117,117,118,118,116,115,115,115,114,115,114,113,114,113,115,114,113,113,111,111,111,111,111,114,113,112,112,113,113,113,111,110,111,112,113,113,112,112,111,112,110,109,109,109,108,108,109,108,108,107,106,106,105,106,108,108,108,110,108,111,113,113,112,111,111,111,111,109,109,107,107,106,107,106,106,105,104,105,106,105,105,105,103,103,105,105,105,106,107,108,107,109,110,111,109,109,107,108,111,116,120,120,124,128,129,129,126,125,126,131,137,148,160,163,167,172,173,175,176,177,177,175,175,175,174,174,174,173,171,169,168,169,168,167,166,167,167,166,164,162,160,160,159,158,156,154,153,151,151,150,149,148,148,148,146,145,143,143,144,144,145,144,142,143,142,142,141,140,139,137,137,137,137,136,135,134,134,134,133,133,132,130,130,131,131,131,132,131,131,130,130,131,130,131,129,128,128,127,126,125,125,126,125,125,125,125,125,125,125,127,129,129,130,129,128,128,129,129,130,131,132,131,131,132,133,132,132,131,131,131,131,131,131,132,130,130,131,133,133,133,133,132,131,130,130,129,128,126,127,128,130,132,133,134,133,132,133,133,132,132,131,130,129,130,129,132,132,132,130,131,132,133,133,134,134,133,134,134,135,136,135,134,136,137,138,139,138,137,136,136,138,139,138,138,137,136,136,137,137,139,138,139,139,141,143,144,145,145,143,143,144,144,144,143,141,140,140,88,88,88,88,90,89,89,88
18,17,17,18,18,18,18,18,18,19,18,19,18,18,18,18,18,17,18,19,18,18,18,19,19,18,18,19,18,18,18,18,18,18,17,17,17,18,18,18,18,18,17,18,18,17,18,17,17,17,18,18,18,18,17,18,18,17,17,17,17,17,18,17,17,18,18,18,18,18,18,18,17,18,18,17,18,18,18,18,18,18,17,18,18,17,17,18,17,18,18,18,18,18,18,18,18,18,18,18,18,18,18,18,18,18,19,19,19,18,19,19,19,19,19,18,18,17,18,18,18,18,18,19,18,18,18,18,17,18,18,18,18,18,18,18,18,19,18,19,18,18,18,18,18,18,17,18,18,18,18,18,18,18,18,18,18,17,18,19,17,18,17,18,18,17,17,17,18,17,17,17,17,17,17,17,17,17,17,17,17,17,17,17,17,17,17,17,18,19,19,19,19,19,18,19,18,18,18,18,18,18,18,18,17,18,18,18,17,18,17,18,18,18,18,18,18,18,18,18,18,19,18,18,18,18,18,18,18,18,18,17,17,17,16,17,17,17,17,17,17,17,17,20,22,22,23,24,25,25,26,25,26,27,28,29,29,31,31,31,33,36,38,39,39,38,38,37,38,40,40,39,40,40,40,40,42,41,40,42,43,47,51,56,58,58,57,58,57,56,55,56,58,60,62,63,62,68,71,74,76,77,79,82,81,80,84,90,92,94,107,131,160,173,175,178,182,188,188,189,203,214,216,225,240,247,247,251,252,250,256,262,262,282,311,344,351,371,374,383,405,412,459,516,552,614,666,669,680,691,717,735,735,731,736,737,729,742,758,756,758,760,759,770,766,752,742,738,743,736,732,719,741,770,783,790,781,794,788,784,780,773,770,759,764,758,752,749,751,747,754,744,736,727,712,704,700,688,694,739,753,748,753,769,781,772,775,761,756,762,777,770,760,749,740,736,737,737,731,725,720,707,698,700,729,727,729,744,744,735,725,721,710,707,693,678,667,666,655,643,634,626,627,620,624,635,631,624,619,616,613,605,597,593,612,620,610,597,590,599,608,605,597,585,580,570,579,590,595,593,583,573,571,571,568,564,562,563,558,552,549,538,530,534,534,529,529,568,609,609,620,636,645,643,643,635,623,618,612,610,604,595,589,586,587,583,572,560,551,546,556,561,561,569,579,577,567,561,554,547,537,532,535,542,538,543,544,543,539,535,528,520,516,510,504,498,496,488,480,477,473,468,463,457,450,444,441,436,432,428,419,413,407,402,397,393,388,381,376,372,367,363,358,353,348,345,341,337,333,329,324,320,317,313,309,306,301,296,293,289,285,282,278,273,270,268,265,264,260,257,252,248,245,241,238,234,230,226,224,221,218,215,212,209,206,204,202,199,195,192,189,185,183,180,177,174,172,170,168,165,162,159,156,154,152,151,147,145,142,140,137,135,133,131,128,126,125,122,121,117,116,115,113,113,110,109,106,105,104,103,101,101,100,99,97,96,95,94,93,91,89,88,86,86,84,82,81,80,78,77,75,74,73,72,72,70,69,68,66,66,65,64,62,62,61,59,58,58,57,56,56,55,54,54,53,52,51,50,50,49,48,48,47,47,46,46,45,44,44,44,43,43,41,40,42,41,40,40,40,39,40,40,38,38,38,37,37,37,38,37,37,36,36,35,35,35,34,34,34,33,33,35,36,36,36,35,35,35,35,35,33,33,34,34,33,32,32,32,31,31,32,32,32,32,31,30,30,31,31,30,30,30,30,30,29,30,29,29,28,28,29,31,30,29,29,29,30,31,31,31,30,30,29,30,31,31,31,30,31,31,30,31,31,30,30,29,29,31,31,32,31,30,30,30,31,31,31,30,30,30,31,32,32,32,32,32,32,32,32,31,31,30,30,31,31,32,32,31,31,31,31,32,31,30,30,31,30,31,31,31,30,31,29,30,31,30,30,30,29,29,30,30,31,30,30,29,30,29,29,28,29,27,27,28,30,30,30,29,29,29,30,29,29,28,28,28,27,29,28,28,28,28,28,28,28,29,29,28,28,28,28,29,29,28,29,28,27,29,29,28,28,28,27,27,28,29,29,28,28,28,27,27,28,28,27,27,27,27,27,27,27,26,27,26,27,26,26,26,26,25,26,26,27,26,26,25,25,25,26,26,25,26,25,25,25,26,25,26,25,25,27,26,26,26,26,25,25,26,27,28,27,27,27,26,28,27,27,27,26,26,26,26,26,25,25,25,25,26,26,26,26,16,16,16,17,16,16,16,17,17,17
88,88,90,91,90,89,89,89,89,90,89,89,89,88,89,88,89,88,87,87,86,86,87,87,87,88,87,87,87,86,86,86,86,86,85,85,87,89,88,88,87,87,88,89,89,89,88,89,88,89,89,89,89,88,88,87,87,89,89,89,87,87,87,87,89,91,90,90,90,89,89,89,88,88,88,88,87,89,90,89,89,88,88,87,88,89,88,88,87,88,87,88,90,90,89,90,90,89,90,90,90,89,90,88,89,90,93,92,91,91,91,90,90,90,90,90,90,91,91,91,91,90,90,90,90,90,89,90,89,88,88,88,89,90,89,89,90,89,88,87,87,87,88,88,89,89,89,89,89,88,88,88,88,88,90,89,88,87,87,87,88,89,88,88,88,88,88,88,87,87,87,86,86,87,88,89,88,88,88,89,87,88,87,87,87,86,86,87,88,90,89,89,89,88,89,89,89,89,89,89,89,90,90,90,90,90,89,89,90,92,91,91,90,89,89,90,92,92,92,92,92,92,92,91,91,91,92,91,91,92,93,93,92,91,91,91,91,90,90,89,89,89,90,90,90,91,91,91,91,91,92,94,93,92,91,91,92,94,94,94,94,94,94,95,94,93,91,91,90,91,91,93,93,93,93,92,92,92,93,92,92,92,92,92,93,95,95,95,94,94,93,92,92,93,92,91,91,92,91,92,91,91,90,91,91,92,91,90,89,88,89,89,89,89,91,92,91,91,91,93,95,95,94,96,98,99,99,101,101,100,100,101,102,103,103,104,104,105,104,105,105,107,109,109,109,111,114,114,115,114,113,112,112,113,112,112,114,114,115,115,116,121,120,121,124,124,124,122,122,124,123,123,123,127,128,128,127,127,127,127,129,128,130,132,131,130,129,128,128,127,129,132,137,138,137,141,144,147,147,145,145,146,151,157,159,158,156,155,158,162,164,165,167,164,165,166,169,168,167,166,164,165,168,170,171,170,169,170,171,175,175,172,172,174,177,177,175,173,173,173,175,178,181,179,177,177,178,179,179,176,175,175,174,176,177,175,174,171,169,169,172,171,170,170,171,169,169,169,169,169,168,167,169,170,170,167,166,163,164,167,170,169,167,166,167,164,163,163,163,161,159,158,157,159,159,159,159,159,158,158,157,155,155,153,151,154,155,154,153,152,151,153,156,154,152,151,150,150,151,152,150,148,148,147,147,150,149,147,146,145,144,147,148,147,146,145,146,147,149,149,149,150,151,152,155,159,158,157,156,155,154,154,151,150,148,146,145,144,144,144,145,145,147,149,151,151,149,147,146,146,151,152,154,154,153,152,151,150,148,146,145,145,146,144,147,153,156,158,164,168,169,168,165,163,162,165,169,171,172,173,172,171,169,167,165,163,161,161,159,160,158,156,154,152,150,149,147,145,144,142,141,142,143,141,140,139,137,136,136,135,133,132,132,131,132,132,131,130,128,128,126,125,124,123,123,122,122,124,124,123,123,123,123,122,120,121,121,121,120,120,119,119,118,119,119,119,118,117,116,114,113,112,112,111,111,111,112,114,115,115,115,114,115,116,117,116,116,119,119,117,116,116,116,115,114,115,116,117,117,116,117,116,116,118,118,119,119,118,118,119,120,119,120,119,120,119,119,119,119,118,118,117,118,119,119,120,119,120,120,119,119,118,117,116,116,118,118,121,122,123,122,121,122,122,123,123,123,122,121,122,124,124,125,124,124,124,123,123,124,123,122,121,122,122,123,123,122,123,122,122,124,125,124,123,122,122,122,122,123,124,122,122,122,124,124,124,124,125,124,125,126,126,126,126,125,125,125,126,126,125,124,123,123,124,124,123,123,122,122,123,123,124,123,122,122,121,122,122,122,122,121,122,122,122,121,120,120,119,119,119,120,121,121,121,120,119,119,119,120,119,118,117,118,118,118,119,119,119,118,119,119,120,119,118,119,118,118,119,120,120,120,119,119,118,118,118,117,117,116,116,116,117,117,118,117,117,117,117,117,117,116,115,114,114,114,114,113,113,113,113,114,114,114,113,113,112,113,112,112,112,112,112,112,112,112,113,113,112,111,111,112,112,111,111,112,111,111,111,111,111,109,109,109,109,108,108,107,107,107,107,108,109,109,109,108,108,108,108,108,108,108,108,108,108,107,106,107,106,105,106,106,106,106,106,106,106,106,105,104,104,104,104,104,104,104,104,103,105,106,106,105,105,105,104,105,104,104,104,104,104,103,102,102,102,103,103,103,103,103,102,103,86,86,88,89,88,89,88,88,88,88
16,16,16,16,16,16,16,17,17,16,17,16,16,16,16,17,16,16,16,16,16,17,16,16,16,16,16,16,16,16,16,16,16,16,16,16,16,16,16,16,17,16,16,17,16,16,16,17,16,16,16,17,16,16,17,17,17,16,16,16,16,16,17,17,17,17,16,16,18,17,17,17,17,17,17,17,18,18,18,18,17,17,17,17,17,17,17,18,17,17,18,17,18,18,18,17,18,17,17,17,17,17,17,18,18,17,18,17,18,17,17,17,17,17,17,17,17,17,17,18,17,17,16,17,17,16,17,16,16,17,17,18,16,17,17,16,16,17,17,17,17,16,17,17,17,18,17,17,17,17,16,16,17,17,16,16,17,16,16,16,16,17,17,16,17,16,16,16,16,16,16,16,17,16,16,16,16,16,17,16,16,16,16,16,15,17,16,16,16,16,16,17,16,17,16,16,16,16,16,16,16,16,16,16,16,16,16,16,16,16,16,16,16,16,16,17,16,16,16,16,16,16,16,16,16,16,16,17,16,16,16,16,16,16,16,17,17,16,16,16,16,16,16,16,16,17,16,17,17,16,16,16,17,17,16,17,17,17,17,17,17,16,17,16,17,16,16,17,17,17,17,16,17,16,16,17,17,16,16,16,16,17,16,17,16,17,17,17,17,17,18,18,18,19,19,19,19,19,19,19,19,19,19,21,21,22,23,23,23,23,24,23,23,22,23,23,22,23,23,22,22,21,22,22,22,22,21,23,23,23,23,23,23,22,22,24,24,25,24,24,24,23,24,24,24,24,24,24,26,26,26,27,27,26,27,28,29,32,34,36,40,40,41,41,45,54,59,63,63,67,75,77,78,82,82,85,92,91,91,95,108,124,154,182,193,195,202,201,205,213,220,232,238,236,238,245,256,272,284,290,305,324,331,337,344,341,352,377,405,412,417,411,403,401,429,505,571,606,602,593,593,603,612,608,602,600,639,719,770,804,838,902,964,982,982,981,981,981,981,981,982,982,982,982,982,982,982,982,981,982,982,982,982,982,982,982,982,982,981,981,982,981,982,982,982,981,981,981,982,981,981,982,981,982,982,982,982,982,982,982,980,981,981,982,982,982,982,982,982,982,982,981,982,983,982,982,981,982,982,981,982,981,982,981,982,981,982,981,981,982,982,982,982,981,982,982,982,982,982,981,967,959,964,975,969,977,982,978,969,953,936,927,922,918,914,922,922,925,918,908,897,881,872,864,850,835,824,812,802,817,808,791,814,880,891,918,940,960,958,938,929,916,899,900,903,908,912,905,901,895,915,910,902,887,877,867,859,855,872,868,881,876,865,852,844,834,823,838,840,859,868,860,850,861,850,855,844,844,842,841,827,817,807,792,787,773,760,756,756,758,756,761,760,758,746,737,729,717,717,712,707,702,706,705,693,680,672,678,673,680,685,675,662,651,646,642,635,628,618,610,603,595,588,582,575,566,560,559,550,545,541,532,524,523,521,514,513,508,502,495,490,486,480,476,470,462,457,454,449,445,440,434,428,425,423,420,414,408,403,399,396,392,388,383,377,371,369,367,362,356,351,347,345,342,340,336,333,329,325,323,321,318,316,312,308,305,301,299,296,293,289,285,282,278,275,271,267,265,262,260,258,256,254,250,246,242,239,235,231,228,224,221,220,218,215,211,207,203,200,197,194,191,187,187,186,183,179,176,173,171,169,168,166,163,161,158,156,154,153,152,149,146,143,142,140,141,141,138,136,133,130,128,125,125,123,120,119,116,114,112,110,108,106,104,103,103,101,99,97,97,95,93,91,91,90,88,87,86,84,83,81,81,80,78,78,77,76,74,73,72,70,71,70,70,70,69,68,67,66,65,65,63,63,61,60,60,58,59,58,58,56,55,54,53,53,53,52,51,50,49,49,49,49,48,47,46,46,45,44,44,43,42,42,41,42,42,41,41,41,40,39,38,38,37,37,36,36,37,39,41,39,39,39,39,39,38,38,37,37,37,36,36,37,36,36,36,35,36,36,35,35,34,34,35,35,35,35,34,34,34,33,35,33,33,32,33,32,33,35,34,34,34,33,34,35,34,33,33,33,32,33,34,35,35,35,34,35,34,36,36,35,35,35,35,36,37,37,36,36,35,36,37,37,37,36,35,35,36,37,37,37,36,36,37,37,36,36,35,35,35,36,37,37,36,36,36,36,36,37,36,36,36,35,35,36,37,37,37,36,36,36,37,37,37,36,36,36,36,39,22,22,22,22,22,23,22,22,22,22,23,23
87,87,86,85,86,85,87,87,87,87,86,87,85,87,85,85,85,85,85,85,86,85,85,85,84,85,84,84,83,83,82,82,82,83,85,84,84,84,84,84,84,84,84,84,83,83,84,85,85,85,85,84,84,85,85,86,85,85,84,84,84,87,88,88,87,86,86,87,88,89,88,88,87,87,87,89,90,91,89,89,88,89,90,89,88,88,88,87,88,90,90,90,90,89,89,89,90,90,89,88,88,88,89,91,90,90,90,90,89,90,90,89,89,88,88,89,89,90,89,89,89,89,88,88,89,88,88,87,87,89,89,89,89,89,89,88,87,89,87,87,87,87,87,88,89,89,89,88,87,87,88,89,90,88,88,88,88,88,89,89,89,88,88,87,87,88,88,87,87,87,86,86,88,87,87,87,87,87,87,87,86,86,86,86,87,89,90,89,89,88,88,88,89,88,88,88,87,86,88,88,88,87,88,87,86,88,88,87,87,86,86,86,86,88,88,88,87,87,88,88,89,89,88,87,87,87,88,88,88,89,88,87,88,88,89,88,88,88,88,89,89,89,89,88,88,88,89,90,90,90,90,90,91,91,93,94,93,93,92,92,93,94,95,96,96,96,95,96,96,96,96,97,97,99,99,98,100,100,99,100,101,103,106,106,105,105,106,108,112,114,112,112,114,117,119,119,119,117,116,116,117,117,118,117,117,117,115,116,115,115,117,120,122,122,121,120,120,121,121,123,124,122,121,120,120,120,120,119,119,118,117,118,117,117,117,118,119,118,117,116,116,115,115,115,116,116,117,117,118,117,117,117,118,117,117,116,115,115,115,115,115,114,115,115,114,114,115,114,113,112,112,112,112,113,113,112,112,112,112,111,111,109,110,111,112,112,111,111,111,111,111,110,110,109,108,108,109,108,110,110,111,110,111,111,111,112,112,111,111,110,110,114,114,115,114,113,114,115,113,114,114,113,112,113,116,116,116,115,115,114,116,116,121,129,129,129,129,130,131,137,140,140,143,142,141,145,146,146,148,149,156,160,160,161,160,160,159,161,161,164,170,175,175,175,175,177,181,186,188,187,185,185,186,183,185,188,188,189,188,187,185,185,186,190,190,188,190,195,193,191,190,191,193,190,189,192,192,191,196,196,195,193,194,195,195,195,196,195,195,196,198,199,197,195,193,195,194,196,195,196,195,196,195,194,192,193,193,194,193,194,195,193,194,191,189,186,186,184,184,184,182,181,185,186,187,185,182,183,185,187,185,184,182,182,183,184,182,181,180,177,176,179,183,183,182,182,181,183,185,183,184,183,181,181,179,178,176,175,173,171,171,171,170,170,169,168,167,168,168,167,165,165,164,165,166,168,166,164,162,161,161,161,159,158,159,157,157,161,159,159,160,158,157,156,155,154,157,159,158,158,162,162,161,162,159,158,158,160,157,155,155,152,152,155,155,153,152,150,149,148,149,148,148,148,149,150,153,151,150,149,149,148,149,147,145,143,143,143,145,149,149,148,146,145,146,147,146,146,145,143,142,142,141,140,139,138,138,138,141,143,144,145,145,150,157,160,161,161,160,161,163,163,161,160,160,162,161,163,166,176,184,185,190,199,207,206,205,207,211,214,212,215,216,214,214,213,212,215,228,236,236,237,247,256,255,253,250,246,243,240,237,232,229,226,225,225,225,224,220,217,215,213,213,211,208,207,204,202,200,197,197,195,194,193,191,189,190,194,194,192,191,192,190,189,187,185,183,181,178,179,180,180,181,180,179,177,176,174,174,173,172,172,170,170,170,168,167,165,163,161,159,157,158,156,155,154,154,154,155,154,153,151,151,150,151,149,149,149,147,147,148,149,150,149,148,147,147,146,146,145,144,142,142,141,141,140,140,139,139,138,139,138,136,136,134,134,132,131,131,132,131,130,132,134,135,136,135,133,132,132,133,134,135,134,133,133,135,136,136,136,135,133,133,133,133,132,132,131,131,130,130,131,131,130,129,128,129,129,130,130,129,128,128,129,129,129,128,126,126,127,127,128,129,128,128,127,127,127,128,127,126,126,124,124,125,126,126,125,125,126,127,127,127,126,126,126,126,127,128,127,127,126,126,126,127,128,126,126,125,125,126,128,128,128,128,127,128,127,129,128,127,126,127,127,128,129,128,127,127,127,128,128,128,128,128,128,128,127,127,128,127,127,127,128,128,128,127,127,127,127,128,127,129,128,128,128,129,129,129,128,127,126,126,126,128,129,128,127,127,91,91,90,89,89,89,89,88,88,87,88,89
23,23,22,23,23,23,23,23,23,23,24,23,23,23,24,23,24,23,24,23,23,24,23,24,24,25,24,24,24,24,24,24,24,24,23,24,23,24,24,24,24,24,24,24,24,25,24,24,24,24,25,25,24,24,24,25,24,24,24,24,24,25,23,24,25,24,24,25,25,25,25,24,25,25,25,24,25,24,25,25,25,25,25,25,25,25,25,26,25,25,25,25,25,25,26,26,26,26,26,27,26,25,26,25,25,26,26,26,27,26,26,25,26,26,26,26,26,25,25,26,26,26,25,26,26,26,25,25,25,26,25,24,25,25,26,26,25,26,26,26,25,26,26,27,26,26,25,26,25,26,26,26,26,26,26,26,26,25,25,26,25,26,25,26,26,26,26,26,26,26,26,26,26,26,26,26,26,25,26,25,26,25,26,26,26,25,25,25,25,25,25,26,25,26,25,26,26,26,25,25,25,25,25,25,25,25,25,25,25,25,26,25,25,25,25,25,25,26,25,25,25,25,25,25,25,24,25,25,25,25,25,25,25,25,25,25,25,25,25,26,25,24,24,24,25,25,25,25,25,24,24,24,24,25,24,24,25,25,24,25,25,25,25,25,25,25,25,25,24,24,24,25,25,24,25,24,25,24,24,24,24,24,24,24,24,24,25,24,25,24,24,24,24,24,24,25,24,25,24,24,25,24,24,24,25,25,24,24,24,24,24,24,24,24,24,24,24,24,24,24,24,24,24,24,23,24,24,24,24,24,25,24,24,24,25,24,24,25,24,23,24,24,24,24,24,24,24,24,24,24,24,23,23,24,25,24,24,24,24,23,24,24,24,24,23,24,24,24,24,25,24,24,24,24,25,24,24,24,25,24,24,24,23,24,23,23,23,23,23,24,24,24,24,23,24,23,23,23,23,23,23,23,23,24,23,23,22,23,23,24,22,23,23,23,24,24,25,23,24,24,24,24,23,23,24,24,23,24,24,25,24,25,24,24,24,24,23,24,24,25,24,25,24,25,24,24,24,24,24,23,24,25,24,24,24,24,24,24,25,24,23,24,23,24,24,24,25,24,24,24,25,24,25,25,24,24,24,24,25,25,25,25,24,24,24,25,25,24,24,24,24,24,24,25,24,24,24,24,24,24,24,25,24,24,24,24,24,25,25,25,24,24,25,25,24,24,24,24,24,25,24,25,25,25,25,25,25,25,26,25,25,25,25,25,25,25,25,25,25,25,26,26,26,26,26,26,25,26,27,26,26,26,26,26,26,26,27,28,28,29,31,35,41,43,43,43,43,44,45,46,48,48,47,47,48,47,46,47,48,57,67,77,81,80,84,83,86,89,88,92,118,149,166,169,174,199,230,269,310,330,332,329,329,334,353,398,425,425,421,419,420,416,445,504,576,626,640,637,664,685,679,677,669,669,670,679,689,725,759,787,793,784,780,774,766,759,761,758,818,845,842,846,840,845,900,948,936,947,972,962,962,954,956,947,936,930,945,945,939,926,921,943,943,928,918,912,927,944,951,981,982,981,982,981,982,982,982,981,982,982,981,982,981,981,982,982,982,981,982,982,978,972,960,962,971,968,954,939,922,915,912,936,962,982,968,953,932,914,910,896,889,899,913,927,939,936,954,961,965,967,978,979,969,975,971,972,964,954,945,934,921,900,888,871,859,846,834,821,823,821,814,840,840,826,812,796,796,809,820,833,838,843,850,834,825,817,811,796,782,779,777,765,752,743,756,760,755,749,737,743,747,747,732,722,712,712,703,691,687,691,690,692,689,694,688,689,692,693,689,691,685,690,689,685,681,671,659,652,643,635,632,624,622,616,605,603,598,591,586,588,589,596,593,601,589,584,596,605,605,615,628,640,634,626,618,614,612,610,605,595,604,600,598,616,623,627,623,620,619,624,619,606,606,604,605,610,606,600,593,583,576,567,563,587,584,581,580,578,573,573,582,593,601,599,592,584,576,564,556,547,540,534,536,540,537,542,546,543,538,526,518,511,506,500,493,492,485,487,484,484,482,477,473,468,464,460,454,450,443,436,436,431,430,443,438,430,423,417,413,408,404,399,395,390,385,381,376,373,369,363,359,356,352,350,347,344,340,335,330,326,327,324,320,316,312,310,308,306,303,297,294,292,285,282,280,277,273,270,267,265,263,260,257,253,251,250,247,244,242,239,236,233,231,229,226,223,220,218,216,215,213,209,206,203,201,198,196,192,188,186,184,182,179,177,175,172,170,18,19,18,18,18,19,18,19,19,19,18,18,18,18
89,89,88,88,87,88,89,87,88,88,87,87,87,89,89,89,88,88,88,89,89,89,89,88,87,87,88,91,92,92,91,91,90,89,90,90,90,89,89,87,89,92,92,92,91,90,90,90,90,91,89,89,88,89,89,91,91,90,90,89,89,90,90,89,89,89,89,89,90,90,89,89,89,88,89,89,88,87,88,87,87,88,90,91,91,90,90,91,90,92,92,91,91,90,90,91,93,92,92,91,91,90,91,91,90,90,91,90,91,92,93,92,92,92,92,92,93,93,92,92,91,90,92,93,93,92,92,92,92,91,91,92,91,91,90,90,91,93,93,92,92,91,91,91,92,92,90,91,91,90,91,93,92,92,91,92,91,90,90,89,89,89,88,88,90,91,91,90,90,90,90,90,91,91,90,91,90,90,91,92,91,90,89,89,90,91,91,91,90,89,89,89,91,94,93,93,92,90,91,92,91,91,91,91,91,91,93,93,93,93,92,92,92,92,92,90,90,90,89,90,92,91,91,90,90,90,91,93,92,91,90,90,90,91,93,92,92,91,91,91,92,95,93,92,92,92,92,93,93,93,93,92,91,92,93,93,93,92,92,92,92,93,95,94,94,93,93,94,94,95,93,93,92,92,93,92,92,93,92,91,91,92,93,92,92,91,91,91,91,93,93,92,91,91,91,91,91,91,90,90,90,90,91,92,91,91,90,90,90,91,90,90,90,90,89,89,91,91,90,90,90,89,89,90,89,89,88,88,87,87,90,93,92,91,90,91,89,89,89,88,88,88,87,89,90,90,90,90,89,89,88,89,88,88,87,87,87,87,89,89,89,89,88,89,89,89,88,88,88,87,87,87,89,88,88,88,87,87,87,86,87,86,85,84,85,86,86,86,86,85,85,86,88,87,87,86,86,87,86,89,90,89,89,88,90,90,91,90,90,89,89,89,89,92,93,92,91,91,91,92,91,91,90,90,90,90,91,90,90,90,89,90,89,91,90,89,88,88,88,87,90,90,89,89,88,88,87,88,87,86,86,86,87,86,89,88,89,88,87,88,87,87,87,86,86,86,86,86,88,88,88,87,86,86,87,87,86,86,86,86,86,87,89,88,88,88,87,87,87,87,86,86,86,86,86,87,86,86,85,85,85,85,86,86,85,85,84,83,84,86,87,86,86,86,86,85,86,86,85,86,86,85,86,88,88,88,88,87,88,89,90,88,88,87,87,86,89,90,90,89,88,88,88,88,88,90,91,91,90,90,92,92,91,92,91,91,90,90,91,93,94,95,95,95,97,98,98,97,96,96,95,96,95,95,94,93,94,94,95,95,94,95,94,94,94,94,94,95,97,99,100,100,100,101,102,103,103,103,102,103,103,102,102,105,105,105,104,104,104,105,105,105,104,108,113,115,115,119,121,120,120,122,122,120,119,124,127,127,132,132,132,135,136,143,146,144,144,142,142,140,141,141,141,140,139,139,138,140,147,149,148,148,150,151,154,159,163,163,162,160,162,174,181,182,181,182,181,180,181,180,181,183,188,188,186,186,188,191,191,188,186,187,191,192,192,197,196,195,194,194,192,190,189,188,195,198,196,194,192,191,193,193,197,201,203,204,202,204,201,200,199,196,199,204,203,200,199,200,201,201,203,204,207,205,203,202,205,204,204,204,201,201,201,200,199,198,199,198,196,194,197,195,193,193,193,191,192,194,195,195,194,191,191,194,193,190,188,188,187,187,187,185,183,182,187,192,192,190,188,185,187,191,192,192,189,188,188,187,186,185,185,185,184,184,186,189,190,188,186,186,191,194,194,190,187,185,183,186,188,186,184,183,181,183,185,182,183,183,181,178,178,179,179,178,177,175,175,176,175,173,172,170,171,172,172,171,170,171,168,166,165,165,164,164,165,163,164,165,162,161,160,159,160,161,159,157,155,154,154,157,156,155,154,153,151,150,150,152,152,150,150,149,151,150,148,147,146,145,146,148,146,146,145,143,142,144,142,142,142,143,144,143,143,142,141,140,140,140,143,143,142,141,140,139,140,139,138,136,135,134,135,137,136,135,132,131,131,133,132,131,131,128,129,132,135,136,137,135,134,134,134,133,131,130,128,129,132,136,134,133,130,130,130,130,128,127,126,125,124,123,122,122,120,119,120,120,121,121,120,119,118,118,119,120,120,120,121,120,122,123,122,121,120,119,119,118,119,121,121,123,126,127,125,126,126,125,124,123,124,123,122,122,123,125,126,125,125,90,90,90,91,92,92,92,91,91,91,90,89,90,89
19,19,18,19,19,19,19,20,19,19,19,19,19,19,18,19,20,19,20,19,19,19,18,19,18,18,18,18,19,19,18,19,19,18,19,19,19,18,18,18,19,18,19,19,18,19,18,18,18,18,18,18,18,18,18,18,17,17,18,18,18,18,18,18,17,18,18,18,18,17,18,18,18,18,19,18,18,18,18,19,18,17,17,17,18,18,18,18,18,18,18,18,18,19,17,18,18,18,18,18,18,18,18,18,17,18,18,18,18,17,18,17,17,17,18,18,17,18,17,18,18,18,18,18,19,18,18,18,18,18,18,18,19,19,18,18,19,18,18,18,19,18,18,18,18,18,19,17,18,18,18,18,18,18,18,19,18,18,18,18,19,18,18,19,18,18,18,18,19,19,18,18,18,19,18,18,18,19,19,18,18,18,18,19,18,18,18,17,18,18,18,19,18,18,18,17,18,18,17,19,18,18,17,18,19,18,18,18,18,18,18,18,18,18,19,18,18,19,18,18,18,18,19,18,18,18,18,19,20,22,22,22,23,24,24,25,24,26,27,26,26,26,26,26,31,34,34,38,40,41,40,39,39,38,38,38,38,38,37,37,36,36,35,35,35,34,35,34,34,34,32,33,33,37,39,41,41,41,40,41,42,44,45,46,49,50,55,74,97,125,139,146,145,144,148,156,157,158,164,175,188,194,194,191,196,210,213,231,246,279,303,300,300,303,343,382,423,432,437,449,464,486,483,479,489,539,597,619,615,617,619,618,635,653,654,648,667,699,743,757,765,799,815,802,788,790,838,877,874,890,887,884,886,868,870,866,885,892,891,881,864,855,845,831,823,822,841,841,828,820,813,803,791,781,768,771,787,791,777,769,765,768,773,771,766,760,758,751,740,732,720,726,729,736,740,737,723,710,700,687,674,665,664,658,657,653,651,643,648,673,684,676,673,686,688,739,772,780,782,797,802,793,798,787,778,784,800,834,831,830,836,854,841,838,841,838,824,839,844,831,819,814,808,804,793,779,771,761,772,770,770,776,781,775,769,762,763,753,747,739,737,730,722,715,731,741,743,748,737,730,714,705,693,686,684,675,663,652,641,631,629,626,625,615,606,598,588,582,577,569,570,567,566,595,613,607,616,628,630,632,631,624,617,606,602,598,586,575,564,559,555,546,545,543,537,530,523,518,512,507,501,494,484,475,468,461,455,451,445,439,432,426,421,415,409,401,395,389,384,380,374,369,363,358,354,350,345,341,336,330,326,322,318,313,308,303,299,295,292,288,284,280,276,274,271,268,265,261,257,254,251,248,244,241,237,234,231,229,227,224,223,219,216,214,211,209,206,203,199,196,193,191,187,184,181,179,177,174,172,169,166,163,161,159,157,154,151,150,147,146,143,142,138,136,133,132,130,128,126,123,121,120,118,117,115,114,111,109,108,106,104,103,101,99,98,96,95,94,92,91,89,87,86,86,86,84,83,82,80,80,78,78,76,75,74,72,71,70,69,68,67,66,66,65,64,62,62,60,60,59,58,57,56,55,54,54,53,52,52,51,50,50,49,48,47,47,46,45,45,44,43,43,43,42,42,41,40,40,39,39,38,38,37,37,36,36,36,36,35,35,34,34,34,33,33,32,32,32,32,33,32,32,30,30,30,30,30,30,29,29,29,28,29,29,29,29,28,28,28,27,27,28,26,26,27,27,26,26,25,25,25,26,26,25,25,25,25,24,26,25,25,25,25,25,24,24,25,24,25,23,23,23,25,25,25,25,24,24,25,25,25,25,24,24,24,25,26,26,25,25,25,24,26,25,25,25,24,25,24,26,26,26,26,25,25,26,26,26,25,25,24,24,25,26,25,25,25,25,24,25,25,25,25,24,23,24,26,26,25,25,25,26,25,26,25,24,24,23,24,25,24,24,24,24,24,24,23,23,23,23,22,22,23,24,23,24,23,23,23,23,24,23,22,23,23,22,23,23,23,23,22,22,22,22,22,22,22,21,21,22,22,22,22,21,21,21,22,22,21,21,20,20,21,22,22,22,22,21,22,22,22,22,22,21,21,22,23,23,23,22,22,22,22,22,23,22,22,22,22,22,22,23,21,21,21,22,23,22,22,22,21,21,22,22,22,21,22,22,22,22,22,22,22,21,22,21,22,21,21,21,21,20,21,20,21,20,21,20,20,20,21,20,20,20,20,20,21,21,21,20,19,19,20,20,20,20,20,20,19,19,20,19,20,20,20,30,31,32,33,35,35,35,36,35,34,36,35,35,34,35,36
89,89,89,91,91,92,92,91,91,91,91,91,91,91,91,90,91,91,91,91,91,90,90,91,90,89,89,89,88,87,89,91,91,92,91,91,90,90,91,90,90,90,89,91,89,91,90,90,90,90,89,88,89,88,88,89,89,88,89,90,89,89,89,88,88,90,89,88,89,88,88,88,90,91,90,90,90,89,89,89,89,89,89,89,89,89,90,89,89,89,89,88,89,89,88,89,88,88,88,89,89,90,90,90,89,88,88,88,87,88,87,87,87,87,87,88,88,87,87,87,88,89,88,89,88,87,88,89,91,91,90,90,90,89,89,89,89,89,89,88,88,90,90,89,88,87,87,87,87,86,87,87,87,87,87,88,89,88,88,87,88,88,88,87,88,87,87,87,87,87,87,87,87,87,86,88,88,88,87,87,86,87,88,88,87,86,86,86,86,86,87,86,86,86,86,86,88,90,89,91,92,92,92,94,96,96,95,95,95,95,95,96,98,99,99,99,99,99,100,103,105,107,109,115,119,120,125,128,129,128,127,126,125,125,124,123,122,123,122,123,122,122,121,119,118,119,118,117,117,116,117,117,116,115,114,113,112,112,112,112,111,111,111,112,114,113,113,112,111,113,112,111,112,110,110,109,109,109,108,107,107,107,108,107,107,110,112,111,112,112,113,112,111,111,110,111,110,112,111,110,109,109,109,109,109,110,110,109,111,110,109,109,108,110,114,114,118,119,118,120,119,119,120,119,119,119,119,120,123,123,122,123,123,122,121,123,125,125,125,126,127,126,130,129,129,133,133,134,133,135,133,134,135,139,142,145,145,146,146,146,149,152,155,153,152,151,151,149,150,149,147,146,151,153,154,155,154,153,151,154,158,159,158,160,159,159,161,161,163,168,166,163,162,162,165,163,160,160,161,163,166,165,164,164,161,161,161,161,160,159,164,163,161,160,159,160,160,161,162,166,165,167,169,167,167,167,168,167,165,164,165,166,166,167,164,163,161,162,164,166,164,162,162,161,163,167,172,173,173,175,175,181,185,183,182,180,180,179,182,184,183,181,178,175,176,178,178,176,174,173,172,172,171,169,169,171,171,172,171,169,167,165,163,164,165,164,163,163,162,161,163,165,164,163,163,161,162,164,163,162,161,160,158,158,158,156,154,152,152,152,155,154,151,152,151,153,153,154,153,152,151,150,151,153,151,150,149,151,153,154,154,153,151,150,150,152,153,153,153,152,152,154,157,157,156,155,153,153,153,151,149,148,146,144,144,144,143,142,141,140,142,144,145,145,146,147,148,146,147,145,143,142,140,141,143,144,144,142,144,146,149,152,151,151,151,150,149,147,146,144,142,141,140,138,138,138,136,135,135,134,135,133,132,131,130,131,131,130,128,129,129,128,128,128,127,128,127,127,126,126,125,123,122,121,121,120,119,119,120,118,119,117,117,116,116,115,116,115,114,116,115,115,115,115,115,114,113,114,113,113,111,111,113,113,114,115,113,114,116,119,118,119,118,117,119,119,118,121,123,125,125,124,124,124,123,123,122,122,123,123,123,126,127,127,126,125,124,124,123,124,126,126,126,129,131,132,132,134,135,135,135,134,132,133,133,132,131,132,131,130,128,128,127,127,129,130,132,133,132,131,133,135,136,135,135,133,133,135,137,137,137,135,134,133,132,133,134,135,135,135,136,137,136,135,134,134,133,134,135,136,138,138,138,138,138,138,138,139,138,137,139,141,143,144,143,143,142,140,141,142,141,140,139,137,137,137,137,138,136,136,137,138,139,140,141,140,140,139,138,137,137,136,135,134,134,136,137,139,139,138,137,137,136,137,137,137,138,138,139,140,140,141,140,139,139,140,141,142,141,140,139,141,140,140,140,140,139,139,138,138,139,140,140,140,141,142,142,142,142,140,140,141,141,141,141,140,138,139,140,140,141,142,142,140,139,140,140,139,138,138,136,137,137,138,139,137,137,136,136,135,135,134,133,132,132,131,132,132,132,133,131,132,133,133,133,133,131,131,132,133,133,133,132,131,129,131,131,130,129,128,127,127,127,127,127,126,125,124,125,124,124,124,123,121,122,122,123,123,123,122,121,122,122,122,121,120,120,119,119,119,119,120,119,118,119,119,120,120,120,118,117,116,116,117,116,115,115,115,116,117,118,117,118,117,117,117,117,118,117,115,115,116,116,116,115,115,114,115,114,114,114,113,113,112,112,112,112,112,112,110,110,110,110,110,111,85,86,87,86,85,85,84,85,86,84,85,84,84,83,84,85
36,36,35,36,34,34,34,34,34,35,36,37,37,38,38,38,37,37,36,37,36,35,35,34,33,33,33,33,33,33,34,34,33,33,32,31,31,31,31,31,31,31,30,30,29,29,29,28,28,28,28,27,27,27,28,26,27,27,27,27,28,31,33,33,32,34,34,35,34,34,34,34,34,33,32,33,32,31,31,31,30,30,30,30,30,28,28,29,28,27,28,27,27,27,26,26,25,25,25,25,24,24,24,24,24,23,23,23,22,22,22,22,22,22,21,21,21,22,21,21,20,20,22,25,25,25,27,28,28,27,28,28,27,27,27,27,26,26,25,25,25,26,28,30,29,29,30,29,29,29,28,28,27,28,28,27,26,26,26,27,28,30,30,31,31,30,31,31,32,30,30,30,30,29,29,28,28,29,29,29,28,28,28,28,28,27,28,30,31,33,35,36,37,38,37,36,36,35,35,37,39,40,40,40,40,40,39,39,38,37,37,36,36,35,35,34,34,34,33,34,33,32,32,32,32,34,35,35,36,37,37,37,36,35,35,34,35,34,33,33,32,32,32,31,31,31,30,30,30,29,30,29,29,28,28,27,27,27,26,26,27,27,26,26,26,26,25,25,25,25,24,25,24,24,24,24,24,25,27,28,30,30,31,33,34,34,34,33,33,33,33,34,34,34,35,38,37,38,36,36,36,36,36,40,44,51,67,76,76,77,92,103,107,109,110,110,108,106,104,103,103,101,103,102,107,126,144,164,172,174,172,169,177,192,203,203,220,238,260,268,268,269,271,293,319,349,363,359,374,375,372,377,394,407,404,408,435,466,516,564,614,646,651,648,686,714,722,719,717,727,720,734,743,745,738,807,926,982,982,981,982,982,981,968,948,937,956,956,982,982,981,981,981,982,982,982,982,982,982,982,982,982,982,982,982,981,981,982,982,981,982,982,982,982,981,982,981,981,982,981,982,981,982,982,982,982,981,981,981,981,982,982,982,982,982,982,982,981,981,981,982,982,982,982,982,981,982,982,982,982,983,983,982,982,981,981,982,982,981,982,982,982,982,982,982,982,981,982,983,982,983,982,982,981,982,982,981,982,982,983,981,982,982,982,982,981,981,982,982,982,981,983,981,982,981,982,978,959,949,942,923,933,982,981,981,981,982,981,982,982,981,981,982,982,980,968,967,979,975,968,969,958,951,948,942,927,917,903,903,896,884,879,876,870,857,851,853,839,833,824,827,812,800,798,794,779,767,784,811,819,837,830,828,815,802,794,782,777,772,765,761,752,741,736,729,717,711,700,696,690,677,677,668,668,676,672,666,659,646,643,638,634,628,620,615,613,607,599,593,588,581,573,572,571,564,556,557,555,560,566,567,564,559,554,548,540,531,525,520,514,506,497,489,482,477,472,467,461,456,451,445,441,436,433,429,423,415,410,404,398,392,386,381,375,372,368,363,360,354,349,344,340,337,333,328,323,319,313,306,303,302,298,294,290,286,282,278,275,271,269,269,270,269,266,262,259,257,255,252,249,244,240,236,231,227,224,220,216,212,210,207,204,201,197,194,193,194,192,190,187,184,182,181,179,176,173,171,170,167,165,161,159,156,152,150,147,146,147,145,143,140,136,134,133,132,131,128,126,124,122,119,117,115,113,111,110,108,107,105,103,101,99,96,96,94,92,91,90,89,88,86,84,82,82,81,80,78,78,77,77,78,76,75,74,73,72,72,70,69,69,68,67,66,65,64,63,62,61,60,60,59,57,56,56,54,54,53,52,51,51,49,49,49,49,49,47,48,46,47,45,45,45,43,44,44,44,45,45,43,43,43,42,42,41,41,40,40,39,39,41,39,39,39,39,39,38,38,38,38,38,36,36,37,36,36,36,35,34,35,35,35,34,34,33,34,35,36,36,36,35,35,35,36,35,35,34,34,34,34,35,35,34,34,33,33,33,34,34,34,33,33,32,32,33,33,32,32,33,33,34,33,34,33,33,33,33,34,33,33,33,33,34,35,35,35,34,34,34,34,35,34,35,35,33,34,33,34,33,33,32,32,33,33,34,33,33,33,33,33,34,34,34,33,33,32,34,34,34,34,33,33,34,34,35,34,34,34,34,34,35,35,35,35,35,35,35,36,36,35,35,34,35,35,36,37,35,35,36,36,37,36,36,36,35,35,35,36,36,35,35,35,35,35,36,35,36,35,35,35,35,35,35,35,35,35,35,36,35,35,35,34,34,34,17,16,16,16,16,16,15,16,15,15,15,16,15,15,15,15,15,16
84,84,85,85,84,84,84,84,83,82,82,81,83,84,84,83,82,82,83,81,82,81,80,80,80,80,80,80,81,80,80,79,79,81,82,80,80,80,80,80,82,82,83,83,83,82,81,81,81,81,80,80,79,80,81,80,80,80,80,80,80,81,81,80,80,80,80,80,82,82,82,82,82,81,81,81,80,80,79,79,79,80,79,79,79,79,79,79,79,79,78,79,78,79,78,77,77,78,78,77,77,77,77,77,76,76,75,75,76,77,78,77,77,77,76,76,76,77,76,76,76,76,77,78,78,78,78,78,78,78,79,78,77,77,78,77,78,79,79,79,79,77,78,78,78,78,77,77,77,77,78,79,80,79,79,78,79,80,79,79,79,78,79,79,80,79,80,80,80,80,81,81,82,82,82,81,81,82,83,82,82,81,81,80,80,81,80,81,81,80,79,82,83,83,82,82,81,82,82,83,82,82,82,82,82,83,83,82,84,82,82,83,82,82,82,82,80,80,80,82,83,82,83,84,85,87,87,88,88,87,86,86,86,88,89,89,89,88,87,88,87,87,87,87,87,87,87,87,88,87,88,88,87,87,87,87,86,85,85,86,86,86,87,86,86,86,86,86,86,86,86,85,85,84,85,85,85,85,85,86,86,86,87,87,86,87,87,87,89,90,89,89,91,90,92,93,93,93,94,94,93,93,92,93,93,94,94,93,94,93,93,92,92,91,91,92,92,92,91,91,90,90,90,91,91,92,91,90,91,92,92,92,92,91,91,92,91,91,91,92,92,93,93,93,92,95,96,98,99,100,100,99,98,98,98,98,100,100,100,102,103,102,101,102,101,102,102,104,105,105,105,105,106,108,108,110,115,121,124,127,133,142,148,146,146,144,143,145,144,143,141,142,141,141,141,140,138,142,142,142,148,153,152,150,150,150,149,155,160,159,161,165,172,172,175,174,173,174,173,172,176,175,175,174,174,178,182,182,181,179,182,187,194,200,199,196,197,196,199,199,201,203,201,205,206,208,215,218,218,218,217,218,217,215,214,217,216,215,214,219,221,219,219,217,218,217,215,212,210,210,212,217,221,220,217,216,218,220,219,221,222,221,219,218,221,222,221,220,221,220,220,222,223,223,222,220,221,221,218,215,212,213,213,212,213,210,210,212,210,209,206,205,202,200,199,200,202,200,199,198,196,195,195,192,196,195,192,194,196,197,193,191,190,189,187,184,182,185,185,187,185,184,186,187,186,183,181,179,179,178,176,175,176,176,173,173,171,169,170,168,168,168,167,165,165,165,163,162,162,160,158,156,155,157,158,156,156,154,153,153,151,151,152,151,150,149,150,152,151,150,149,148,148,148,147,145,143,142,141,141,142,144,142,142,141,141,139,138,138,137,137,136,137,138,136,136,134,134,137,139,138,142,147,155,161,162,169,174,177,179,180,180,178,176,174,173,171,175,181,180,178,176,177,182,195,211,225,227,229,237,245,250,253,255,254,255,257,255,253,253,252,252,251,249,249,246,245,244,243,242,240,237,234,232,232,233,235,235,232,230,227,224,221,219,215,212,209,207,204,202,201,198,195,193,190,189,188,189,186,187,187,186,185,184,183,183,182,180,180,179,176,176,175,176,175,173,171,170,169,167,166,164,163,161,159,160,162,163,162,160,158,156,156,155,154,153,152,151,150,149,148,147,146,144,146,147,150,152,150,148,146,145,146,147,147,144,144,144,144,144,143,141,140,140,142,142,143,144,143,141,139,139,140,140,140,138,139,140,142,144,146,145,144,144,144,144,144,143,142,140,140,142,143,145,144,143,141,141,141,140,141,140,139,139,141,141,142,142,140,139,138,139,139,139,138,137,135,135,135,136,136,136,135,136,137,137,137,137,137,135,136,139,141,144,143,143,141,141,142,144,145,144,142,141,140,140,140,140,137,136,136,136,137,137,137,137,136,138,137,138,138,137,136,135,136,137,137,138,137,136,136,136,137,139,139,138,137,137,137,137,139,138,136,136,136,136,137,137,137,135,136,136,137,139,139,140,140,140,140,140,139,138,137,136,138,139,140,139,138,137,137,138,139,140,140,139,137,137,140,140,140,139,139,138,138,138,139,139,138,137,137,138,137,136,136,135,134,134,134,135,135,134,134,133,133,135,135,136,135,133,133,133,132,131,132,131,129,130,130,129,130,130,131,133,134,134,134,132,131,130,129,130,130,130,130,129,128,128,128,128,129,128,127,85,85,84,83,84,84,84,83,83,82,82,81,82,84,83,84,83,82
15,15,14,15,15,16,16,15,15,16,15,15,15,16,15,16,15,16,16,15,16,15,16,15,16,16,16,15,16,15,15,15,16,16,16,16,16,16,16,16,16,16,16,16,15,17,16,16,16,16,16,16,16,16,16,16,17,16,17,16,16,16,16,16,16,17,17,17,17,17,17,17,17,17,17,16,16,16,16,17,17,17,16,16,17,16,16,16,16,17,17,16,17,17,16,17,16,17,17,17,17,16,17,17,16,16,17,16,17,16,16,16,16,17,16,17,17,17,16,17,17,17,17,17,17,17,17,18,17,17,17,18,17,17,17,17,18,17,17,17,17,17,17,17,16,17,17,17,18,17,17,16,17,17,17,17,16,17,17,17,16,18,17,17,17,17,17,17,17,17,17,17,17,17,17,16,17,17,17,17,16,18,18,17,17,17,17,18,18,18,18,18,18,19,18,17,18,17,17,18,17,18,18,18,18,17,18,18,17,18,17,17,17,17,17,17,17,17,17,17,16,16,16,17,18,17,17,17,17,18,17,17,17,17,17,18,18,18,16,17,17,18,17,18,18,17,17,18,17,18,18,17,17,18,17,18,18,18,18,18,18,18,18,18,18,19,18,17,18,17,18,18,18,18,17,17,18,18,17,18,18,18,18,18,17,17,17,18,17,17,17,17,17,17,17,17,17,16,17,17,17,17,18,17,17,17,17,17,17,16,17,17,17,17,16,17,17,17,17,17,16,16,17,17,17,17,17,17,16,17,17,16,16,16,16,17,17,16,17,17,17,18,17,16,16,16,17,17,17,17,17,17,16,17,16,16,17,16,17,16,16,16,16,17,16,17,16,16,17,16,16,16,15,16,17,17,16,16,16,16,17,17,17,17,17,16,17,16,16,16,17,17,16,16,16,16,17,17,16,16,16,16,16,16,16,16,16,16,16,15,16,16,16,16,16,16,15,16,16,16,16,17,16,16,16,16,16,16,16,16,15,15,15,15,15,16,16,16,16,16,15,16,15,16,16,15,16,15,15,16,15,16,15,15,16,15,15,15,15,15,15,15,15,15,15,15,15,15,15,15,14,15,15,15,15,14,15,15,15,15,15,15,14,15,16,15,16,15,15,15,15,15,16,15,15,15,15,15,15,15,15,14,15,15,15,16,15,15,14,15,15,14,14,15,14,14,15,14,15,15,15,14,15,15,14,15,14,14,14,14,14,14,15,15,14,14,15,14,14,14,14,14,15,14,15,14,15,14,15,15,14,14,14,14,14,14,14,14,14,14,14,14,15,14,14,14,15,14,14,14,14,14,14,14,14,15,14,14,15,15,15,15,14,14,15,14,14,14,15,15,15,15,15,14,14,15,15,15,14,14,14,14,14,14,15,15,14,15,15,15,14,15,14,14,14,14,15,15,15,15,15,15,15,15,15,15,14,15,14,14,15,15,14,15,15,15,15,15,15,15,14,14,15,16,15,15,15,16,16,16,15,15,16,15,15,15,16,16,16,16,15,16,16,15,15,15,15,15,15,15,16,15,15,16,15,15,16,16,16,15,15,15,15,16,16,16,16,15,17,15,16,16,16,15,16,16,16,16,15,16,16,16,15,16,16,16,15,16,16,16,16,16,16,16,16,16,16,15,15,16,16,16,16,16,16,16,16,16,16,16,15,15,15,16,16,15,16,16,15,16,16,16,16,16,16,16,16,16,16,17,16,17,17,16,17,16,15,15,15,16,15,15,15,16,16,15,15,15,15,16,15,15,16,15,16,16,16,15,15,15,16,16,16,16,17,17,17,17,17,17,16,16,16,17,17,16,17,16,16,16,16,16,17,16,17,16,17,17,16,17,16,17,19,19,21,21,24,26,26,28,29,33,34,37,39,38,37,40,41,43,46,49,50,50,53,58,59,67,80,102,124,128,127,130,131,138,148,152,152,161,173,183,192,195,193,195,202,200,200,210,229,240,248,260,272,278,280,280,275,274,285,299,302,302,300,304,315,314,312,311,308,307,301,297,304,308,326,351,389,426,455,461,456,451,463,478,479,474,484,492,523,549,567,563,566,624,694,731,735,764,785,792,783,777,765,753,740,730,719,713,761,856,925,973,968,981,981,981,982,981,982,982,982,982,981,982,982,982,980,970,955,947,935,931,924,907,916,946,948,956,972,955,962,960,942,954,977,971,965,966,956,969,957,947,933,947,954,943,931,919,905,906,930,959,954,947,941,944,930,917,902,16,16,16,16,16,16,16,15,15,16,16,16,16,16,16,15,15,15,16,15
82,81,84,84,82,82,82,82,84,84,84,84,83,83,83,84,83,83,83,82,81,82,84,84,84,83,83,82,84,84,84,83,83,83,81,83,85,86,86,85,85,85,84,84,85,84,83,84,82,84,85,84,84,83,83,83,84,84,83,83,81,81,81,82,81,81,81,80,80,81,82,82,82,82,81,81,81,83,83,83,83,82,83,83,84,84,83,83,83,82,83,85,86,85,85,85,85,86,88,88,87,86,85,86,87,86,87,87,86,86,87,86,87,86,85,84,84,84,85,88,87,87,86,87,86,87,88,88,87,87,87,86,87,87,86,86,86,85,87,87,88,88,88,88,88,88,90,89,90,89,89,88,89,91,91,90,89,89,88,89,91,91,90,91,89,91,91,91,92,90,90,90,89,90,90,90,89,88,88,88,88,89,89,89,87,88,87,89,92,92,91,90,90,90,90,91,90,90,89,88,89,90,94,93,93,93,92,93,93,94,93,93,92,91,92,93,93,92,91,91,90,90,90,90,89,88,88,86,87,89,89,88,88,88,87,88,90,89,88,87,87,87,88,92,92,91,90,89,88,90,90,88,88,87,86,87,88,89,89,88,87,86,86,88,87,87,85,85,84,85,87,86,85,85,84,83,84,87,87,87,86,85,85,86,87,87,86,85,85,84,85,85,84,83,83,83,82,84,86,85,84,84,84,83,85,86,86,85,84,83,83,85,84,85,84,84,83,84,83,83,83,82,81,80,81,82,82,82,82,81,81,82,83,83,83,82,81,81,82,84,85,85,83,83,83,84,87,86,85,85,84,83,84,86,86,86,86,84,84,84,86,85,86,85,84,84,85,86,84,85,84,84,83,85,85,85,85,84,84,83,86,88,87,87,86,85,85,86,86,85,85,84,84,84,86,87,86,86,85,85,84,84,84,84,83,83,82,83,85,85,85,84,83,84,85,86,87,87,87,87,87,87,88,87,88,87,86,86,88,89,88,89,88,88,87,89,91,91,91,89,89,90,90,91,91,90,89,89,89,91,92,92,92,91,91,92,92,92,92,91,91,90,91,93,94,94,93,93,93,94,94,94,94,93,92,92,94,96,97,96,94,93,94,94,96,95,95,94,94,94,94,97,96,95,95,94,95,96,98,97,96,95,94,94,95,98,97,96,96,95,96,96,96,95,95,94,93,93,94,97,96,96,95,94,95,95,95,94,93,93,92,92,94,94,94,94,93,94,94,95,97,96,95,95,94,94,95,96,94,94,93,93,94,96,94,94,93,92,92,94,94,94,93,92,92,92,94,95,94,94,92,92,93,94,94,93,92,91,92,92,92,92,90,90,90,89,90,90,92,92,91,91,91,91,91,91,90,88,89,88,91,92,92,92,91,91,92,92,94,93,92,91,92,91,92,93,93,92,92,92,91,92,92,93,92,92,92,92,94,95,94,93,92,92,92,92,92,92,91,90,90,90,91,92,91,90,90,89,90,90,90,89,89,88,87,88,91,93,92,92,92,91,91,91,90,90,89,88,88,89,89,88,89,88,87,87,88,89,88,88,87,87,86,87,90,92,93,91,91,91,92,92,91,90,90,90,90,91,91,91,90,89,88,88,89,90,88,88,88,87,87,89,89,89,88,88,88,89,90,92,94,93,93,92,92,92,92,91,90,90,90,91,93,92,92,92,93,93,93,93,93,92,91,91,90,91,93,93,93,92,92,91,91,92,91,90,90,91,90,90,90,90,89,89,90,90,90,92,91,91,92,92,93,95,96,95,94,94,93,93,94,95,95,95,94,94,95,97,96,95,94,95,93,95,97,97,96,95,94,94,95,96,96,96,94,94,93,94,95,95,95,94,94,93,92,92,92,92,93,92,92,94,95,96,95,95,95,96,96,95,95,94,94,93,93,93,93,93,93,92,92,93,94,94,95,94,93,93,91,91,91,91,91,91,91,90,90,89,89,89,89,90,91,90,90,89,90,90,89,89,88,88,88,89,89,91,93,95,96,96,96,98,98,101,102,102,101,101,102,101,100,101,103,105,107,108,111,111,112,112,113,119,119,120,120,124,123,124,123,125,127,128,128,129,131,132,132,131,133,134,133,136,136,135,137,137,139,151,156,158,163,163,165,167,168,165,165,166,165,165,172,171,170,169,173,174,173,172,170,172,174,178,184,186,187,185,183,183,181,183,183,188,189,190,189,192,197,194,193,195,198,200,202,201,200,204,203,202,208,210,207,82,82,82,82,82,81,81,81,81,80,81,82,82,82,81,81,81,81,81,80
16,16,16,15,15,15,16,16,16,16,15,15,17,16,16,16,16,15,16,16,15,15,15,15,15,15,16,16,15,15,15,15,15,15,15,16,16,15,15,15,14,15,15,15,15,15,15,15,15,15,15,15,15,14,15,14,14,14,15,15,15,15,15,15,15,15,14,15,15,15,15,14,14,14,15,16,15,15,16,15,14,14,15,15,15,15,15,15,15,15,15,14,15,14,15,15,16,15,15,16,16,16,15,16,16,16,16,16,17,16,15,16,16,16,16,17,16,17,17,16,17,16,16,16,16,17,17,17,16,17,16,17,17,17,17,17,17,17,17,17,17,17,17,18,17,17,17,17,17,17,17,17,17,17,17,17,16,17,17,16,16,16,17,16,16,17,16,17,17,16,17,17,16,17,17,16,16,16,17,16,17,16,17,16,17,16,17,17,17,17,18,17,17,18,17,17,16,16,17,17,17,17,17,16,16,16,16,16,16,17,16,16,16,17,16,16,17,16,17,16,16,17,15,16,16,16,16,16,16,15,16,16,15,16,16,16,16,16,15,16,16,17,16,16,16,15,16,16,16,16,16,16,16,17,16,17,16,16,17,17,16,16,17,18,18,18,18,18,18,17,17,17,19,17,18,17,17,17,18,18,19,18,18,18,18,18,18,19,19,19,21,21,22,23,22,22,22,22,21,22,21,21,21,21,21,20,20,21,20,20,20,20,20,20,21,20,21,20,20,20,20,20,20,20,20,20,19,19,20,20,19,19,19,19,19,19,19,19,18,19,18,18,19,20,19,19,19,18,19,19,19,19,20,20,19,19,20,20,20,20,20,20,20,20,20,20,20,22,25,27,28,31,30,30,30,30,30,29,29,28,28,29,31,35,36,37,41,41,41,42,47,52,56,64,67,67,68,67,66,70,72,72,74,77,77,76,80,81,79,80,81,79,82,93,97,101,101,102,101,105,105,106,109,117,130,146,158,164,178,197,197,197,205,210,209,224,238,246,243,242,253,254,257,268,269,275,274,301,333,350,352,348,346,345,339,350,381,399,396,402,421,441,445,445,454,451,445,438,433,437,441,444,440,455,484,494,488,481,489,480,477,503,517,530,548,546,547,558,562,559,560,551,545,556,574,668,734,741,736,746,759,779,804,810,805,805,818,814,833,873,909,908,891,882,881,883,871,877,864,866,857,843,843,831,818,806,795,810,812,821,814,800,787,775,765,757,746,732,722,718,706,694,679,665,656,644,639,639,633,635,632,633,638,638,640,633,635,648,654,645,636,623,612,604,594,603,606,615,613,601,593,586,584,588,586,576,584,590,594,585,582,577,573,571,565,553,547,558,551,545,555,555,553,547,545,534,526,517,514,517,540,561,564,564,601,626,624,613,609,624,613,602,594,582,572,562,554,549,539,533,548,544,553,553,552,551,547,544,541,572,624,684,686,709,733,749,746,739,737,742,758,776,783,773,770,787,782,772,778,789,780,773,777,788,798,792,801,796,785,772,764,789,831,828,819,808,820,834,821,807,796,789,787,793,800,829,820,828,827,833,827,833,829,817,843,865,856,863,881,873,862,846,841,859,883,881,901,895,904,940,951,941,935,937,945,939,929,959,958,948,942,927,927,937,949,947,947,929,912,896,887,877,869,863,894,888,878,863,859,860,850,841,831,841,855,864,869,873,875,880,870,859,850,871,881,869,859,876,879,863,863,860,888,880,881,872,865,868,854,858,888,878,871,855,844,833,826,824,816,816,832,824,808,792,782,773,775,772,767,786,790,783,773,772,761,746,741,735,725,719,714,701,691,688,682,686,683,673,666,661,656,648,640,634,624,615,603,596,589,578,575,574,575,576,570,564,564,568,584,576,568,563,557,554,551,553,569,575,571,578,572,562,556,548,543,538,537,537,529,520,538,547,544,550,556,554,544,545,545,539,530,524,514,505,496,486,476,472,468,470,465,461,456,447,442,434,431,427,425,425,435,436,428,424,418,413,414,406,400,400,404,413,407,407,422,433,466,464,476,476,476,479,479,496,491,484,477,483,478,483,483,482,503,511,502,498,489,482,475,465,458,450,448,460,457,464,473,477,485,484,480,470,459,452,448,443,440,433,425,418,416,422,416,410,401,400,400,395,392,388,381,374,369,367,360,352,346,339,334,328,324,319,317,314,309,303,297,293,289,286,285,282,276,271,266,262,261,259,254,251,247,245,243,240,237,234,231,228,225,22,23,22,23,22,22,22,22,22,22,22,22,23,22,23,22,23,22,22,22,23,22
81,80,80,79,81,83,82,82,81,81,81,81,81,81,81,81,80,80,81,82,82,82,82,82,83,82,81,81,81,81,80,81,83,83,82,82,82,81,81,81,82,81,80,80,80,81,81,81,81,82,80,81,80,81,81,80,80,79,79,80,82,82,81,81,81,81,81,81,81,80,80,80,80,81,83,83,83,83,82,82,82,82,81,81,82,81,81,82,83,82,82,83,82,83,85,85,84,83,83,83,83,85,84,85,84,84,83,83,84,83,83,83,83,83,83,84,84,84,84,84,84,84,84,85,84,84,83,84,85,87,85,86,85,85,85,86,85,84,85,85,84,85,86,88,87,86,86,85,84,86,85,85,84,84,83,84,85,84,83,84,82,83,82,82,82,82,82,82,82,82,83,84,83,83,82,82,83,83,82,82,82,82,81,82,84,84,84,83,84,83,83,82,83,82,82,83,83,83,83,84,83,83,83,83,84,85,84,84,83,82,83,84,85,85,84,83,83,83,83,83,82,83,82,81,83,84,84,84,84,83,82,83,84,85,84,84,83,83,84,85,86,85,85,84,85,85,85,85,84,84,85,84,87,90,92,90,90,90,89,91,93,93,94,95,96,96,98,99,99,98,98,100,100,100,99,101,100,102,101,101,104,105,110,112,112,113,113,113,112,112,116,117,120,134,145,145,151,157,159,158,160,165,168,168,167,171,182,184,193,196,195,197,196,194,196,197,196,196,197,199,199,198,198,200,202,202,199,199,203,201,200,204,210,209,209,211,210,208,209,212,211,210,208,206,207,206,204,202,205,207,205,204,206,205,203,202,202,200,199,202,206,205,205,209,210,209,207,204,202,200,198,194,193,190,190,188,185,181,180,177,175,174,173,172,171,169,169,169,169,167,166,164,162,161,159,159,158,157,154,152,152,150,149,148,145,144,144,144,141,140,138,136,136,135,134,132,132,132,131,131,129,128,127,128,129,130,129,131,131,134,135,134,133,131,130,129,129,129,129,128,126,125,123,124,123,122,120,119,118,117,117,118,117,117,117,118,118,119,118,118,118,118,122,127,127,131,132,133,135,135,134,133,133,134,136,140,140,139,138,138,140,142,148,148,147,146,146,145,143,145,146,144,146,152,157,157,158,158,156,155,155,154,157,161,165,167,170,168,167,173,175,178,177,176,177,175,173,172,172,170,170,171,172,173,174,174,173,171,173,180,181,178,176,174,173,172,172,175,177,176,173,173,177,180,180,177,177,182,183,182,181,179,179,181,183,182,183,182,180,180,180,179,179,177,178,177,178,178,181,181,178,176,175,176,179,181,179,179,179,178,179,180,183,183,182,179,178,182,182,180,180,179,179,176,177,175,174,175,176,175,175,175,175,178,177,176,176,176,175,174,172,174,175,176,175,173,171,171,169,168,166,165,171,175,173,172,170,170,172,171,172,171,170,170,169,168,166,166,168,170,171,169,168,167,166,168,168,166,168,169,168,167,166,165,167,166,168,168,171,170,170,169,168,166,165,163,162,161,161,162,162,164,166,168,168,167,167,168,167,166,165,164,163,162,163,161,159,160,159,156,158,162,161,162,160,159,157,157,159,157,155,155,155,157,161,159,158,156,159,162,165,165,162,161,161,160,160,159,156,154,154,153,152,151,151,149,149,149,149,151,151,149,149,149,147,147,154,152,151,152,154,155,153,153,153,154,153,153,154,156,157,158,157,157,156,155,154,153,152,152,155,157,158,156,154,153,151,150,150,149,151,152,152,150,151,150,148,147,145,144,144,146,147,146,143,143,144,145,144,143,143,145,145,144,144,143,143,142,140,138,138,140,141,141,139,138,137,138,137,137,135,136,135,135,136,134,134,134,133,135,137,136,135,134,133,133,136,136,136,138,137,138,138,141,141,140,139,136,136,137,136,136,137,135,135,135,135,132,131,131,130,129,131,130,128,127,127,126,126,128,127,126,126,126,125,129,128,127,125,125,123,123,122,123,122,125,126,127,127,127,125,125,123,124,125,124,124,124,123,123,123,123,122,122,120,119,120,122,122,122,121,119,120,122,123,122,122,122,124,124,124,124,123,126,125,125,127,127,128,130,131,131,130,129,128,128,128,129,128,128,127,127,126,124,122,124,124,123,122,120,119,119,122,123,121,120,119,119,117,117,117,119,121,123,123,129,136,135,133,135,141,144,145,144,146,147,146,146,148,147,151,159,170,175,176,182,185,185,186,82,84,85,87,86,86,86,85,86,86,86,85,85,84,84,84,86,85,85,85,84,84
22,22,22,22,22,23,23,22,22,22,22,22,22,22,22,22,22,22,22,22,22,22,22,22,23,22,23,22,22,22,22,22,22,22,23,22,23,23,22,22,22,23,22,22,22,23,22,23,23,23,22,24,24,23,23,24,23,23,24,24,24,24,24,23,24,24,24,24,25,24,24,24,25,24,25,24,23,24,24,25,24,24,25,25,24,24,24,24,24,25,24,25,24,24,25,24,24,24,24,24,24,23,25,24,24,24,24,24,25,24,24,23,23,24,24,25,24,24,24,24,24,25,25,24,24,24,24,25,24,24,25,25,24,24,24,25,24,24,24,24,24,25,24,25,25,25,24,25,25,25,25,25,25,24,25,24,24,25,25,25,24,25,25,24,25,25,24,24,24,24,25,25,24,24,24,24,25,25,24,25,24,24,25,24,25,25,24,24,23,24,25,24,24,24,24,23,24,24,24,24,24,23,23,23,23,23,23,22,23,22,22,23,23,23,23,23,22,23,22,23,22,23,21,22,22,23,22,23,22,22,22,22,23,22,22,22,22,22,22,22,22,22,22,22,22,21,22,22,22,21,22,22,22,22,23,23,23,22,22,22,23,22,21,22,22,22,22,21,22,22,22,22,24,24,24,23,23,24,24,24,24,23,24,24,23,23,23,24,23,23,23,24,23,23,23,23,22,22,22,23,23,24,22,22,23,23,22,22,23,21,22,21,20,21,20,21,20,20,21,21,20,21,20,20,20,20,20,20,20,20,21,20,21,21,20,20,20,20,19,21,20,20,20,20,21,22,21,22,22,23,27,28,28,32,35,37,37,35,36,39,42,44,45,47,50,51,54,55,56,59,61,61,62,66,75,85,87,88,90,90,90,89,87,86,88,90,92,90,89,90,96,115,159,204,220,221,220,217,214,222,239,241,253,261,259,271,280,281,285,290,294,291,288,292,307,327,341,337,339,345,357,363,383,417,444,449,464,465,471,487,511,523,527,521,518,542,551,543,554,577,598,594,581,591,602,597,643,734,781,783,823,861,880,881,876,860,863,863,858,864,856,854,875,896,882,890,895,884,869,859,854,838,847,844,840,846,834,838,878,923,937,928,913,912,927,930,929,919,906,905,895,879,873,870,872,859,846,830,819,802,789,777,766,756,742,727,714,704,693,684,672,658,647,637,629,619,633,630,622,622,615,608,599,592,600,604,606,605,621,617,606,599,597,594,608,604,599,605,627,626,622,613,603,602,593,582,578,575,576,569,560,560,554,550,540,532,529,524,522,521,511,506,504,494,490,485,497,523,531,524,522,520,520,525,524,523,515,512,507,503,503,499,496,501,493,491,488,493,506,506,504,501,497,493,497,506,507,497,490,506,536,536,544,564,570,564,553,546,547,541,531,519,512,506,500,496,490,482,475,468,469,463,457,457,459,463,479,492,495,510,515,537,550,561,561,551,555,556,552,550,542,545,541,537,527,516,517,509,499,494,522,556,555,567,584,598,592,581,579,577,570,558,547,544,536,526,521,516,506,498,491,495,489,486,482,476,468,463,457,462,464,456,450,440,436,430,424,423,422,419,415,411,407,402,397,393,388,380,376,370,363,360,358,353,347,344,340,337,333,330,326,323,318,314,310,306,302,299,295,292,291,288,284,277,275,272,269,263,259,258,253,250,249,248,243,239,236,235,233,230,225,222,218,214,211,208,205,202,200,198,195,192,191,189,188,184,181,178,175,172,169,167,165,162,159,156,153,152,150,149,149,146,146,145,143,140,138,135,135,135,133,131,128,127,126,123,122,121,119,116,115,112,110,108,106,104,102,100,99,96,95,93,92,90,89,88,87,86,84,83,82,80,79,78,77,75,74,73,72,70,69,69,68,65,65,63,62,61,61,60,60,59,58,57,57,55,55,53,53,53,54,53,54,54,55,54,55,54,54,54,53,52,51,51,49,49,48,48,47,47,46,46,46,46,46,45,44,44,43,42,42,42,40,41,40,40,40,39,38,38,37,38,38,38,37,36,36,36,37,39,38,38,38,37,37,37,38,38,38,38,38,37,38,37,37,36,35,35,35,36,36,35,35,34,33,35,35,34,34,34,34,34,34,36,36,35,35,35,34,34,35,35,34,35,33,34,34,34,34,34,33,34,34,34,34,33,32,32,32,34,33,33,33,32,32,32,32,32,32,32,31,31,31,32,32,31,31,31,31,32,32,31,31,30,30,31,32,14,14,14,14,14,14,14,14,14,14,14,15,14,14,15,14,14,14,14,14,14,15,14,14
83,84,83,83,83,83,83,83,83,82,82,82,81,82,83,83,82,82,82,82,81,84,83,83,82,81,81,82,83,83,83,82,82,82,83,84,85,84,84,83,83,83,84,83,83,83,83,83,84,85,85,85,85,84,84,83,84,82,83,82,83,82,83,84,84,83,83,83,84,83,83,83,82,82,82,82,83,84,82,83,84,82,82,82,81,81,81,81,80,80,81,81,80,80,79,79,80,80,81,80,80,80,81,81,83,84,83,83,82,82,83,83,83,82,82,82,82,83,84,86,84,84,84,83,84,85,84,84,84,83,82,85,86,85,85,84,85,84,84,85,84,84,83,84,84,84,85,84,84,84,83,83,85,85,84,83,83,82,83,83,84,83,83,82,81,83,83,83,83,83,82,82,82,83,83,83,83,83,82,83,84,84,83,83,83,83,83,84,83,83,83,83,82,83,84,82,82,82,82,82,83,83,83,83,82,82,82,82,82,81,80,81,81,80,82,85,84,84,83,83,83,83,83,83,82,81,81,82,83,83,82,83,81,81,82,82,82,81,81,81,79,80,80,80,80,80,79,82,86,93,94,96,96,96,97,100,99,101,105,110,115,116,115,117,123,124,126,128,128,129,129,136,139,147,153,154,163,181,186,185,184,186,187,185,185,186,189,188,190,188,188,189,193,192,195,200,198,203,211,212,218,223,222,221,227,232,235,236,236,237,235,231,228,227,225,222,220,222,225,228,228,226,225,224,221,217,215,211,209,206,202,200,198,196,194,192,191,188,187,183,181,179,179,178,175,174,172,170,168,166,165,164,162,161,160,158,157,154,154,152,151,150,149,149,147,145,144,143,142,141,140,139,139,139,138,138,138,138,137,136,134,134,133,132,131,130,130,130,130,129,127,127,128,127,126,126,126,124,123,123,125,125,124,125,127,129,130,129,128,128,128,128,129,129,128,128,128,133,134,134,133,134,132,132,131,131,134,135,134,133,132,131,131,128,127,127,127,127,127,129,131,129,128,128,132,131,131,130,130,129,130,129,128,129,134,134,134,135,135,134,136,136,137,138,141,139,137,139,140,141,142,141,146,145,148,148,147,145,145,144,148,150,149,148,147,147,153,157,159,159,160,161,163,164,164,162,160,159,163,166,165,164,163,162,163,164,164,161,164,165,165,165,165,164,164,167,170,171,171,170,169,172,174,174,173,175,173,176,177,177,176,174,173,171,172,174,175,174,173,170,169,167,168,167,168,172,172,172,172,172,171,172,173,174,173,171,171,173,174,175,173,171,170,172,177,175,173,171,170,170,170,171,170,170,170,169,168,166,165,163,162,160,162,166,167,166,163,162,164,166,166,164,162,160,162,163,164,162,160,159,160,164,166,166,166,165,163,161,161,164,164,163,161,161,159,158,159,158,157,156,156,155,156,156,154,151,150,149,152,151,149,151,150,149,149,150,150,149,148,146,145,145,144,142,141,140,139,139,137,136,135,135,134,136,138,136,135,135,133,135,136,136,135,133,132,131,132,133,132,129,127,127,127,128,128,127,126,125,123,124,124,126,124,122,122,123,123,124,125,127,128,130,132,131,131,128,128,127,127,126,124,125,126,125,126,127,126,124,124,124,123,127,131,129,129,130,132,135,136,134,134,134,134,135,134,133,136,135,139,141,142,144,144,142,141,140,138,137,136,134,133,133,132,131,130,130,130,130,134,137,143,148,156,169,183,194,199,202,211,216,215,213,210,210,208,207,206,204,205,205,206,206,205,202,201,201,200,198,196,195,195,196,199,198,198,197,195,192,191,188,189,189,188,189,188,186,187,188,188,188,186,185,183,181,180,179,177,174,175,176,176,175,171,170,167,167,166,164,164,162,163,161,160,160,160,161,162,164,163,162,161,160,159,158,160,162,162,160,160,161,160,160,161,160,159,158,158,158,156,155,155,154,153,151,149,149,149,148,148,148,147,146,146,145,144,144,147,150,150,149,147,146,145,145,144,142,140,139,140,142,142,141,143,141,139,138,138,137,137,137,140,144,147,149,149,150,149,148,148,147,146,145,144,143,142,141,142,142,141,142,140,139,139,141,142,141,140,140,142,143,144,144,144,145,143,142,143,145,144,143,142,141,141,140,140,138,138,139,140,139,139,139,139,139,139,139,140,140,140,138,139,139,141,141,142,141,141,142,143,144,144,147,145,144,144,144,144,142,142,141,142,143,143,142,143,145,144,80,81,80,80,79,79,81,80,79,79,78,79,79,81,82,81,80,81,80,80,81,81,80,80
14,14,14,14,14,14,14,14,13,14,14,14,14,14,14,14,14,14,15,15,15,14,15,14,15,15,14,14,14,15,14,15,15,15,14,14,14,15,14,14,14,14,14,14,14,15,15,14,14,13,14,14,14,14,14,14,13,13,14,14,14,14,14,13,14,14,14,14,14,14,14,14,14,14,14,14,14,13,14,15,14,14,14,13,14,14,14,14,14,14,15,15,14,14,14,14,14,14,14,14,15,15,14,14,15,14,14,14,14,15,15,15,15,14,15,15,15,15,14,15,15,15,15,15,15,15,15,14,15,16,15,15,15,16,15,15,15,15,15,15,15,15,16,16,16,16,16,15,16,15,15,15,15,15,15,15,16,15,15,15,15,15,15,15,15,16,15,15,15,15,15,15,15,15,15,14,15,15,15,15,15,14,15,15,14,15,16,15,15,15,15,14,15,14,14,15,15,14,15,15,14,15,15,15,14,15,14,14,14,14,14,14,15,15,15,14,14,14,14,14,14,14,14,15,14,14,15,14,14,14,14,14,14,15,14,15,14,14,14,14,14,14,13,14,14,14,14,14,14,13,15,15,15,15,14,15,14,14,15,14,14,14,15,14,14,15,15,15,15,15,15,15,15,15,14,15,15,15,15,14,15,15,15,14,15,15,15,15,14,14,15,15,14,15,14,14,14,14,15,14,14,14,15,14,14,14,14,14,15,14,15,15,15,14,15,14,14,14,14,14,15,15,15,15,14,14,15,15,15,14,15,15,15,15,15,15,14,14,15,15,15,15,15,15,15,15,15,15,15,15,14,15,15,16,15,16,15,15,15,15,15,15,15,15,16,15,15,15,16,17,17,17,16,17,17,17,16,16,16,16,16,17,16,16,16,16,17,17,16,16,16,15,16,16,16,16,16,16,16,17,17,17,16,17,17,17,16,17,16,16,17,18,17,17,17,17,17,18,18,18,18,19,19,18,18,18,19,19,18,19,18,18,18,20,19,18,22,27,37,39,44,55,65,71,74,79,83,84,84,87,86,85,83,85,87,102,117,125,133,131,131,145,153,152,152,156,163,164,165,165,168,178,190,203,215,228,229,226,221,217,221,230,240,241,237,245,252,258,257,262,259,274,304,314,310,319,328,332,330,332,355,377,378,371,370,393,419,423,420,425,430,425,440,476,508,519,526,518,521,541,548,538,533,524,522,521,513,509,513,541,577,596,591,591,596,618,624,618,630,670,705,702,688,688,726,752,759,751,743,752,784,784,771,768,752,740,727,714,702,692,701,702,692,686,676,675,689,684,684,684,678,671,656,656,682,674,666,655,643,638,631,631,634,627,620,620,632,628,623,630,622,611,604,605,604,600,594,596,620,659,683,678,669,678,681,696,692,680,667,666,669,677,669,659,647,648,644,647,639,632,622,619,606,596,584,572,566,555,549,576,595,601,608,598,589,582,597,594,584,577,574,567,572,577,570,558,551,545,545,561,559,561,560,559,548,546,540,530,520,528,574,597,607,634,643,638,631,621,618,618,630,632,634,632,628,622,623,619,620,616,609,602,590,584,592,584,579,568,564,563,576,589,604,599,608,625,623,615,613,622,651,664,654,665,676,666,664,673,669,691,716,736,744,745,759,750,765,763,753,740,733,722,721,707,700,688,687,688,680,667,653,649,638,626,629,647,653,648,641,628,627,641,636,624,619,610,605,618,650,655,647,661,663,655,645,636,652,651,653,650,643,632,623,611,603,601,605,594,584,582,588,584,579,579,570,558,559,562,560,553,550,541,532,527,530,528,537,532,539,537,537,525,527,528,528,535,530,538,534,531,523,515,505,497,491,484,482,480,476,474,473,468,463,457,459,456,451,450,444,436,442,449,457,447,439,433,425,424,419,423,422,418,413,406,399,396,388,383,381,380,378,377,375,372,367,366,362,354,347,345,340,337,334,333,327,322,322,318,316,313,306,307,309,304,303,304,301,296,291,290,289,286,285,281,282,279,276,274,274,271,266,262,262,258,255,255,253,250,254,253,256,254,250,248,246,244,245,240,237,236,233,231,228,225,222,219,217,215,212,209,207,203,201,198,196,193,191,187,185,184,181,180,177,175,172,170,169,166,165,165,163,160,158,155,153,152,149,146,145,144,142,140,139,137,134,133,131,129,126,124,122,119,117,115,113,111,108,107,105,104,102,101,98,96,95,93,92,90,88,87,86,85,82,81,80,20,20,20,20,20,20,19,20,20,20,20,20,20,20,20,19,20,21,20,20,20,20,20,20,19,20
80,80,80,81,80,80,79,80,80,81,81,80,80,79,79,80,82,83,83,82,82,82,81,82,81,80,81,80,79,80,82,82,81,82,81,81,81,82,81,81,81,79,79,79,81,80,80,79,79,79,79,80,79,78,79,78,78,79,80,80,80,79,79,79,80,80,80,79,79,79,79,79,81,80,80,80,79,81,80,80,80,80,80,79,80,81,82,82,82,81,80,81,81,81,80,79,80,79,80,81,82,81,81,81,80,81,82,82,82,82,81,81,80,82,82,82,81,82,81,82,82,82,81,82,82,81,82,83,82,82,82,81,81,81,82,81,82,81,82,81,83,85,85,85,84,83,83,83,83,83,82,83,83,84,83,84,83,83,82,82,82,82,81,81,80,81,80,81,82,83,81,81,81,81,80,81,81,81,80,79,79,80,80,80,80,79,79,79,79,79,79,79,78,78,78,79,79,80,79,79,79,80,79,79,79,78,78,78,79,79,79,79,80,79,79,80,79,79,79,78,78,78,78,79,80,79,79,78,79,78,80,80,80,80,80,79,80,81,81,80,80,80,79,79,80,80,79,78,78,78,80,81,80,81,80,80,81,80,80,79,80,79,79,79,81,85,85,84,84,84,84,84,84,84,84,83,82,83,84,84,84,84,84,83,84,84,83,83,82,82,82,82,82,82,82,82,83,85,88,89,89,91,93,92,93,94,98,102,103,104,103,102,103,113,127,138,139,147,157,162,161,165,170,173,175,193,202,200,199,196,196,194,196,194,199,208,214,216,215,213,213,213,215,220,219,222,230,247,258,262,260,257,261,269,274,275,273,280,287,291,294,296,304,313,311,329,331,343,346,342,342,345,349,351,348,351,347,341,337,333,331,328,324,327,331,333,333,332,336,340,342,350,348,351,349,346,346,345,342,339,335,332,329,326,321,317,312,306,303,298,293,290,286,282,278,276,274,270,266,262,260,256,252,249,246,243,240,237,234,232,230,229,227,223,221,219,217,213,210,209,208,204,202,199,198,199,198,197,194,192,189,187,185,183,181,180,179,176,174,172,173,173,173,172,170,169,171,169,167,165,164,162,160,159,157,157,157,156,155,155,155,153,151,149,147,146,145,143,142,143,144,143,142,142,143,142,140,141,142,142,141,140,138,137,137,136,135,133,134,136,139,143,141,141,139,138,137,138,140,140,140,141,142,142,142,142,142,143,142,143,147,149,151,149,149,149,153,153,153,156,156,157,157,159,162,163,161,161,159,159,156,156,160,161,164,167,169,167,166,168,172,173,174,177,176,174,174,174,173,173,176,180,178,178,175,173,176,176,176,178,183,185,187,190,190,188,186,188,189,188,187,187,186,185,188,191,190,189,188,187,185,185,187,188,188,188,188,191,191,191,190,187,186,191,195,194,191,188,185,186,187,189,189,191,192,194,193,191,193,191,189,190,190,192,197,199,197,195,194,194,197,200,197,196,193,192,195,196,195,194,192,191,187,187,188,189,188,185,184,190,189,187,186,188,190,191,191,189,187,184,183,182,190,193,190,189,190,193,195,194,191,189,186,185,185,188,189,188,186,183,183,183,180,179,177,176,177,177,177,176,174,172,170,169,169,170,168,166,164,162,165,168,166,165,165,165,166,170,168,167,164,163,161,160,162,161,161,160,159,158,161,162,161,159,159,158,163,167,166,164,163,163,164,162,160,161,160,159,159,159,161,159,159,156,157,157,160,159,157,159,158,157,155,158,158,157,157,155,155,154,152,152,151,152,152,151,151,150,150,149,149,151,153,151,150,149,147,146,147,147,145,146,145,145,145,144,142,139,138,137,138,138,137,135,135,133,132,133,132,132,129,129,130,131,135,135,134,133,132,132,131,131,133,132,130,130,129,129,130,130,132,131,130,130,132,130,128,128,127,128,127,127,124,124,123,125,125,126,125,124,124,122,124,124,123,122,121,120,121,121,120,119,118,117,116,115,114,114,114,112,112,112,114,112,112,110,110,109,110,108,110,109,109,109,110,110,110,108,109,108,107,109,108,107,106,105,105,104,103,103,102,103,101,101,101,100,101,99,99,98,98,98,97,97,97,97,96,97,96,96,96,96,96,95,95,94,94,94,95,95,95,96,95,94,95,94,94,94,94,94,95,94,94,95,95,96,97,99,99,100,100,100,103,102,103,103,103,103,102,102,101,100,100,102,105,108,109,108,109,111,113,112,111,111,111,92,91,92,91,90,90,90,89,91,93,92,91,92,92,92,91,91,91,90,90,90,91,91,93,92,92
20,19,19,20,20,19,20,19,20,19,19,20,20,19,19,19,20,19,20,19,20,19,19,20,20,20,20,19,20,20,19,19,19,19,19,20,19,19,20,20,20,20,20,19,20,21,20,20,20,20,19,19,21,21,20,21,19,20,20,20,20,20,20,20,20,20,20,20,19,20,19,20,19,19,19,19,19,18,19,20,19,19,19,19,19,19,19,19,19,19,18,19,19,20,20,20,20,20,20,20,20,19,20,19,19,19,18,19,19,20,20,19,19,20,19,19,19,19,19,19,20,20,19,19,20,20,20,19,20,19,19,20,19,19,20,20,20,20,20,20,19,20,19,20,19,20,19,20,20,19,20,20,20,20,19,20,19,19,19,19,19,19,20,19,19,19,19,19,19,19,19,20,19,19,19,20,19,20,19,19,19,18,19,19,19,19,19,19,19,19,19,19,19,19,20,19,19,19,19,19,19,19,20,20,19,19,19,19,20,19,19,19,20,19,19,18,19,19,19,19,20,19,19,19,19,19,19,19,19,19,19,19,19,19,19,19,20,19,19,19,19,19,19,18,19,19,19,19,19,19,19,20,20,20,19,19,19,20,20,19,20,20,19,19,20,20,20,20,21,20,19,20,20,20,19,19,21,19,19,20,20,19,19,20,19,19,20,19,20,19,20,20,20,20,20,20,20,21,20,20,21,20,20,20,21,20,20,20,20,20,20,20,21,21,21,21,21,20,20,21,20,20,21,21,22,22,22,23,24,25,24,23,23,24,23,23,23,22,22,23,25,24,24,24,25,24,23,24,25,26,26,27,26,26,26,26,25,25,25,24,25,24,25,24,25,25,25,25,25,24,25,26,25,26,25,25,25,25,25,25,25,26,27,26,27,27,27,27,27,28,26,26,26,26,26,26,26,27,26,26,26,26,27,26,26,26,26,26,26,26,26,26,25,25,26,26,28,29,29,30,31,34,36,43,50,53,64,77,86,89,87,86,85,86,87,86,89,101,110,111,114,129,147,153,157,176,186,187,187,193,192,204,216,220,225,240,254,255,252,259,263,266,264,273,285,289,290,287,286,287,289,291,291,296,294,302,314,323,319,312,309,303,306,333,369,381,374,368,363,360,391,460,522,577,603,598,604,618,611,606,593,598,614,618,615,632,630,643,660,659,690,727,733,739,762,769,768,764,762,747,756,794,851,884,874,870,884,888,886,869,869,869,909,933,929,928,934,930,939,941,973,970,972,966,968,982,982,982,981,981,980,975,960,957,949,937,923,926,912,898,884,872,855,844,834,820,817,816,804,791,777,765,755,752,747,737,739,731,725,721,732,741,738,740,733,719,718,718,705,691,688,705,699,690,679,674,665,655,653,643,631,619,610,602,590,578,588,582,573,564,559,554,547,538,533,524,524,534,540,536,549,545,552,554,563,552,542,537,545,551,552,557,553,542,541,542,536,527,523,514,504,499,496,493,496,491,505,521,519,531,538,545,558,556,559,551,551,539,531,525,529,527,525,522,514,512,501,491,483,481,476,483,485,490,499,500,525,538,551,564,565,572,589,604,603,596,618,624,628,633,635,640,631,625,627,637,634,652,659,663,671,671,661,652,643,630,623,615,607,601,601,601,597,586,583,578,568,560,552,550,549,555,555,563,566,577,599,611,607,594,585,586,582,590,639,713,726,752,760,758,770,778,770,778,774,764,757,757,761,759,759,770,762,752,743,739,724,709,697,685,674,675,664,655,655,654,646,637,625,627,644,649,648,635,627,623,616,610,599,601,617,614,612,622,627,617,618,618,612,599,588,588,594,584,578,570,559,554,548,545,544,546,542,531,533,545,552,568,588,588,608,627,634,626,616,606,598,589,587,581,575,575,575,575,569,559,558,564,557,549,540,531,548,588,591,594,603,610,618,617,618,609,604,596,585,576,574,568,569,572,568,558,562,595,618,622,620,628,640,644,648,637,629,627,622,623,620,631,638,639,642,641,648,656,658,651,654,644,636,628,617,604,596,613,610,599,602,596,588,576,566,556,550,545,534,529,544,547,553,570,578,588,602,593,583,573,574,571,566,560,551,546,546,536,529,527,525,528,523,532,531,545,559,563,557,562,565,564,561,556,549,540,530,526,520,511,502,495,487,480,472,463,456,452,444,434,432,436,428,423,417,417,416,414,410,404,400,394,389,383,378,371,365,359,353,348,345,343,341,337,335,331,328,19,20,19,20,19,20,19,19,20,20,19,20,20,19,20,20,20,20,20,20,19,19,20,20,19,19,20,19
92,91,91,92,91,91,91,91,90,91,91,91,91,91,91,90,92,93,92,92,92,92,91,92,94,93,93,92,92,91,91,91,90,90,89,89,89,89,92,92,90,90,90,90,92,93,92,92,92,91,92,93,95,94,94,93,93,93,93,92,92,91,92,92,92,93,93,92,92,91,90,90,90,89,89,89,89,88,89,91,90,90,90,90,89,89,89,89,88,88,88,88,89,91,91,92,92,92,91,91,91,91,91,90,91,90,90,91,91,91,90,91,91,90,90,90,89,89,89,89,90,91,91,91,90,91,89,90,89,89,89,89,89,89,91,91,91,90,90,90,90,90,90,90,90,90,90,90,92,91,91,90,90,90,90,91,91,91,91,91,90,91,92,91,91,91,90,90,92,92,90,91,90,90,90,92,93,93,92,92,91,91,90,91,90,90,90,90,90,92,92,92,91,90,90,90,91,91,90,90,90,90,91,91,92,90,91,91,89,90,90,90,90,89,90,89,91,92,91,91,91,90,90,89,90,89,89,88,89,88,89,89,89,89,89,88,88,88,89,89,88,88,87,87,89,90,90,90,90,90,90,92,93,91,91,90,90,91,95,95,95,95,94,93,95,96,97,95,95,94,93,94,96,95,95,93,94,93,94,95,94,94,93,94,95,95,97,97,96,95,96,95,96,95,96,96,98,99,100,101,102,102,103,103,106,107,106,107,105,105,107,110,113,114,118,122,125,126,127,134,136,136,136,135,135,140,141,152,171,188,198,198,197,197,197,198,202,205,209,208,207,205,204,207,212,218,218,215,214,212,209,208,208,212,218,221,221,222,222,219,218,216,222,227,227,227,225,222,224,226,225,225,228,228,226,229,237,242,240,237,233,230,227,224,221,218,215,213,211,210,210,209,207,206,202,201,198,196,194,191,190,187,186,183,182,180,179,178,177,176,175,174,172,171,168,167,166,165,163,162,162,161,160,159,157,155,154,152,151,149,147,149,149,147,147,145,145,143,142,141,143,141,142,142,141,142,141,141,140,139,137,138,138,138,138,138,138,137,137,138,138,138,138,139,138,139,139,139,138,137,137,137,138,137,135,135,135,133,132,131,130,131,132,134,134,135,135,134,132,131,130,128,130,132,131,130,132,134,138,136,135,136,138,138,137,136,135,134,133,135,138,141,140,144,150,150,151,159,167,173,171,169,170,171,173,173,173,173,172,171,176,181,179,177,179,181,182,184,187,186,184,182,185,190,188,188,189,189,187,188,191,192,192,192,193,195,197,201,200,198,199,203,204,203,204,205,202,204,206,207,205,202,200,200,204,210,209,206,207,204,205,205,205,203,205,206,203,207,209,207,205,205,206,208,208,210,208,205,207,208,210,214,214,213,209,207,210,212,215,212,208,206,205,205,209,208,205,203,202,202,203,203,202,200,200,201,201,202,203,201,198,199,202,202,200,197,196,194,193,193,194,194,193,190,188,189,191,189,187,185,185,183,183,184,185,183,181,179,179,181,180,176,175,174,175,176,175,173,171,169,167,166,167,165,163,162,162,165,168,166,164,163,162,163,164,164,162,159,157,156,154,157,156,155,152,153,151,149,149,149,148,147,146,147,148,147,148,147,146,145,144,143,142,141,142,140,141,141,139,137,136,134,135,135,135,134,133,133,132,132,133,132,132,131,131,134,134,133,133,132,132,131,131,131,129,129,128,127,128,128,126,126,125,127,126,127,126,126,125,125,125,124,124,123,123,122,121,121,122,122,121,120,120,119,120,118,116,117,115,115,117,119,120,120,118,117,116,116,116,115,114,113,113,113,113,112,111,111,111,111,110,109,108,108,109,110,111,115,114,113,112,113,113,114,116,115,115,114,114,118,118,117,116,115,114,114,116,115,114,115,115,114,114,119,119,119,120,119,119,119,120,120,119,117,117,118,118,121,121,120,120,122,122,122,120,121,119,118,120,119,119,119,118,117,117,117,116,116,115,115,115,115,117,117,114,114,114,115,114,114,113,112,111,112,112,112,110,110,109,108,107,108,108,108,108,107,106,109,109,107,108,109,109,108,108,107,108,107,107,109,110,110,111,111,111,112,112,111,112,112,114,116,121,122,122,121,121,119,119,119,116,116,115,114,113,114,115,114,113,113,112,112,111,110,110,111,110,110,110,111,112,112,111,111,111,111,110,110,110,109,109,110,113,111,110,108,107,109,108,109,110,110,112,90,91,91,91,91,90,90,90,90,90,89,90,89,88,90,92,92,91,91,90,90,90,90,90,90,90,90,90
19,19,20,19,20,20,19,20,20,19,20,20,20,20,20,20,20,21,20,21,21,20,20,20,19,20,20,20,21,20,21,20,20,20,20,20,20,20,20,20,20,19,20,20,20,19,20,19,19,19,19,19,20,19,19,20,20,19,19,19,19,20,19,20,19,19,20,20,19,19,20,20,20,20,21,20,20,20,20,20,19,20,20,21,20,20,20,21,21,20,20,20,20,20,21,20,20,21,21,20,21,20,20,21,20,20,21,20,20,19,20,21,21,21,21,21,21,21,21,21,21,21,21,21,20,21,21,21,20,21,21,20,21,20,21,20,21,21,21,22,21,21,20,21,21,21,21,21,21,21,21,22,22,21,21,21,21,20,21,21,21,21,21,21,21,21,20,21,20,20,21,20,20,21,21,20,21,20,20,21,21,21,21,20,21,21,21,21,21,20,20,21,21,20,22,21,21,21,22,22,21,21,21,21,22,21,22,21,22,22,23,22,22,22,22,23,22,21,22,22,21,22,22,22,23,22,23,24,24,24,25,24,24,25,26,27,26,26,25,26,25,26,26,26,25,25,24,26,25,25,25,25,25,25,25,25,25,25,25,25,25,25,25,24,24,24,24,24,24,23,23,23,23,24,24,25,26,28,27,27,27,26,27,27,27,28,27,26,27,27,27,27,28,33,37,36,36,35,35,36,36,37,38,37,38,38,38,39,39,41,43,44,43,43,46,49,50,48,50,50,50,50,50,51,51,49,49,49,49,49,51,52,52,57,64,67,68,69,69,71,70,73,77,77,79,81,83,87,96,100,98,100,104,117,142,154,161,163,163,163,174,187,188,190,187,196,218,223,220,224,225,230,255,275,278,284,280,292,310,320,327,330,332,329,329,325,322,326,357,393,395,397,410,413,413,417,442,488,526,546,547,550,561,577,600,615,609,609,642,647,635,627,623,635,647,642,634,624,622,623,659,674,687,684,675,676,670,671,667,665,663,687,688,683,701,717,712,705,697,707,699,700,724,772,785,781,792,804,834,857,846,842,849,845,837,833,816,803,793,788,775,759,745,741,742,732,723,715,713,704,698,704,706,713,704,695,683,682,693,693,692,689,677,675,668,658,644,641,632,623,634,624,623,615,612,603,597,592,589,580,575,572,563,554,556,550,541,550,553,551,556,565,565,565,555,545,533,524,518,509,505,505,506,500,492,490,487,482,474,473,478,485,482,483,474,464,456,446,447,440,440,439,431,423,415,405,407,402,406,424,427,420,413,412,415,418,416,417,416,414,417,429,428,423,424,426,433,438,438,435,432,425,424,424,418,413,405,403,404,398,394,395,390,387,384,384,386,396,390,385,385,382,389,392,388,380,380,375,382,387,388,400,398,394,389,393,395,395,412,425,427,441,451,457,449,442,449,447,442,444,443,437,441,444,446,442,454,474,475,474,473,473,469,464,470,484,482,482,480,486,507,525,525,529,520,522,521,523,537,604,641,662,661,711,756,785,793,790,781,770,776,772,776,776,783,780,772,772,789,778,767,770,765,755,749,736,733,729,748,737,722,712,705,708,703,723,745,745,738,755,754,751,753,739,736,756,779,773,758,780,783,784,781,772,765,753,743,730,725,714,703,698,718,722,713,712,707,697,697,714,717,709,715,725,736,733,723,725,727,723,730,725,719,711,703,689,675,666,660,685,700,698,707,712,712,706,696,694,686,672,658,646,643,637,624,612,603,592,586,581,570,560,569,579,574,570,560,550,548,546,536,531,534,532,526,521,514,507,502,492,487,488,491,492,490,482,475,474,474,469,465,461,458,451,449,449,449,445,438,431,427,422,417,410,405,400,394,387,383,381,376,370,365,360,355,351,346,342,336,331,329,326,320,316,310,305,301,301,300,297,295,291,286,284,281,278,275,271,266,263,259,256,255,251,247,245,241,238,236,233,230,228,223,220,218,216,214,212,208,205,202,200,199,196,192,189,186,183,181,178,175,172,169,167,165,162,160,157,154,152,150,148,146,144,142,139,137,135,133,130,127,126,123,121,118,117,115,113,111,110,107,105,103,101,100,99,96,95,93,92,92,91,89,88,86,85,84,82,81,80,78,76,75,74,74,73,71,70,69,67,67,66,65,64,62,62,63,63,63,62,61,60,59,59,60,59,58,57,56,57,56,57,58,58,57,56,56,56,56,55,55,53,52,52,53,52,52,52,51,51,52,25,25,24,25,25,24,25,25,26,25,25,24,25,25,25,25,25,25,26,26,26,26,26,26,26,26,28,28,27,27
91,93,92,92,91,91,90,93,92,92,92,91,91,91,93,95,95,94,95,94,93,93,92,91,92,92,91,92,94,94,93,92,92,92,92,92,92,92,91,91,91,90,92,91,91,91,90,89,90,91,90,90,90,91,90,91,90,91,90,89,90,89,88,89,88,88,87,86,87,88,90,90,89,89,89,88,88,88,87,87,87,87,88,89,89,89,88,88,88,88,89,88,88,88,88,87,88,89,88,89,88,88,88,88,89,88,88,88,88,87,89,92,92,92,91,91,91,93,94,93,92,92,91,93,93,95,94,94,93,94,95,95,95,95,94,93,93,94,95,96,95,96,95,95,96,96,96,96,95,95,95,95,96,96,96,95,96,95,96,96,96,94,94,94,93,94,95,94,95,95,95,94,94,94,93,93,92,92,93,92,94,95,94,95,95,96,94,94,93,93,93,93,93,95,97,97,97,98,97,96,96,96,96,96,98,102,103,105,107,108,112,113,114,117,120,120,124,128,130,132,132,132,133,139,140,141,145,146,146,145,148,151,153,153,160,163,162,163,162,161,163,164,164,163,162,161,162,165,166,163,162,160,160,160,163,164,162,162,161,160,160,161,162,160,159,161,163,169,173,172,172,173,171,171,170,168,167,165,162,161,159,159,157,155,154,154,154,153,151,150,149,147,145,146,146,144,142,141,141,140,139,139,137,135,134,133,132,132,131,130,129,128,127,128,130,130,128,127,126,126,125,125,123,122,121,120,119,119,118,118,116,115,114,115,116,115,114,112,111,111,113,117,115,114,113,113,112,112,113,111,111,110,109,109,111,111,109,108,108,108,110,109,109,109,110,109,110,111,110,109,111,112,111,111,110,109,108,108,108,108,110,111,111,110,110,111,112,112,113,112,112,112,111,113,115,114,113,112,111,113,112,113,113,114,113,115,116,115,115,117,121,124,124,123,121,120,122,125,125,124,125,126,126,126,126,125,125,131,133,133,137,140,140,138,139,140,144,144,143,144,143,143,144,148,152,153,152,150,149,148,151,153,151,151,150,154,159,163,163,163,162,162,163,163,162,161,160,160,161,162,161,160,162,161,161,163,163,165,163,161,160,159,163,162,161,159,163,163,162,163,161,158,159,162,163,163,165,165,163,162,165,165,165,166,165,162,160,159,162,165,165,164,162,162,164,164,162,160,159,158,158,159,160,159,159,156,157,155,156,155,154,155,154,155,156,158,157,155,155,155,157,157,154,152,150,150,148,151,156,155,153,152,152,151,151,150,150,148,146,144,144,145,146,144,145,143,141,142,140,139,137,138,139,140,139,137,136,135,134,137,141,139,138,136,136,138,140,138,138,137,135,135,135,134,133,132,131,129,129,130,129,129,129,127,127,129,129,129,128,128,127,128,130,129,128,127,129,128,128,130,130,129,130,130,133,135,135,133,132,134,135,135,134,134,134,133,131,132,131,130,128,127,126,125,125,124,124,122,122,123,124,124,125,124,123,122,121,120,120,119,118,117,117,119,119,118,118,119,120,119,119,118,120,118,117,119,121,120,121,120,118,117,117,116,116,115,115,113,113,115,113,113,113,111,110,110,109,110,110,111,110,110,109,109,108,108,108,108,107,107,108,108,107,106,106,108,110,110,110,112,113,113,111,111,111,112,112,114,113,112,111,109,109,108,109,109,108,107,108,109,112,112,111,112,113,111,110,110,111,111,111,111,111,110,111,110,109,109,108,108,107,106,106,106,104,103,105,104,104,104,103,103,102,102,102,102,101,101,101,100,99,99,98,98,98,97,96,96,95,95,96,95,97,97,97,96,97,96,96,95,95,95,95,95,95,97,96,96,95,95,95,95,95,94,94,95,94,93,95,96,95,96,96,96,95,96,95,95,95,96,96,96,98,97,97,96,96,97,98,98,98,98,98,97,97,97,97,98,98,98,98,97,97,97,98,98,98,99,99,99,99,98,100,98,99,99,99,101,103,103,103,103,103,103,103,103,102,102,102,102,102,102,102,101,102,102,103,102,104,103,102,103,104,106,108,110,109,110,109,110,112,111,111,111,110,112,114,115,117,116,117,116,118,118,118,117,117,117,116,114,114,115,114,114,113,114,114,115,115,115,115,118,121,124,129,131,131,130,133,135,136,137,137,137,136,137,138,139,141,141,139,138,136,135,136,137,135,135,136,137,138,139,141,140,139,141,143,144,147,148,146,90,89,88,88,88,89,90,90,89,89,88,88,88,88,88,88,87,87,88,88,89,90,88,87,87,88,90,91,92,90
27,26,26,28,28,28,28,27,28,28,28,28,28,27,27,27,27,27,29,28,28,28,28,28,29,28,28,27,26,27,27,28,27,27,26,26,26,26,26,26,26,26,25,25,25,27,26,26,25,26,25,25,25,25,25,25,24,24,25,25,25,24,24,24,24,25,26,25,25,25,26,24,26,26,26,26,25,25,26,25,26,24,24,25,24,25,25,25,24,24,24,24,23,24,24,24,24,23,24,23,25,25,25,25,24,24,24,25,24,25,24,25,25,25,26,26,26,25,25,25,25,26,26,25,25,24,24,25,26,26,25,25,26,27,28,27,27,26,26,26,25,27,27,26,26,25,25,25,25,25,25,23,24,23,24,24,24,24,23,23,23,23,23,23,22,23,22,22,22,22,22,22,21,21,21,21,22,21,20,21,21,21,21,22,22,22,21,22,21,21,20,20,20,20,21,20,21,21,22,21,21,21,21,22,22,21,20,21,21,21,22,22,22,22,22,21,21,22,21,21,22,22,21,21,22,22,22,21,21,21,21,21,21,20,20,20,20,21,20,20,21,20,20,20,20,20,19,19,19,20,20,20,20,20,20,20,20,19,19,20,19,20,19,19,20,20,19,19,20,19,19,19,20,19,18,19,19,19,19,20,20,20,19,20,19,19,20,20,19,19,20,19,19,20,20,20,19,19,19,20,19,19,19,19,19,19,18,19,19,20,19,19,19,19,19,19,20,19,20,19,19,19,19,19,19,19,20,20,18,19,19,18,19,20,20,20,20,19,20,20,19,19,19,19,20,20,20,21,21,21,21,21,21,20,21,20,20,21,20,20,22,22,22,21,21,22,21,21,21,20,20,20,20,20,20,20,20,19,19,20,20,20,18,19,19,19,19,20,20,20,20,21,20,20,21,21,20,21,20,20,22,22,23,25,26,27,27,28,28,27,28,29,30,30,33,35,38,41,41,41,49,56,57,62,63,63,65,70,83,111,141,165,175,185,187,185,194,207,208,223,255,281,295,302,358,434,476,472,465,461,458,454,458,470,466,472,469,464,479,517,538,530,534,571,598,604,599,601,640,670,679,668,656,650,640,627,638,662,682,709,730,733,724,732,740,766,753,738,745,750,736,723,715,710,704,697,701,711,708,701,699,703,697,690,684,676,665,657,647,634,623,615,617,615,635,645,650,697,720,717,743,781,795,788,776,763,749,751,769,761,750,743,754,765,771,780,770,758,750,740,725,713,713,719,733,744,759,802,837,840,856,913,906,890,885,889,879,865,855,848,843,838,824,809,799,803,818,811,794,782,767,765,766,751,737,728,716,715,729,745,742,748,736,731,723,709,698,684,671,659,653,647,638,642,638,633,629,626,617,604,592,588,579,572,567,564,557,558,550,550,552,543,533,522,520,551,559,562,571,577,581,578,573,567,560,558,552,552,569,572,573,565,555,555,551,541,534,539,536,528,523,516,512,506,500,493,497,500,494,487,487,482,474,466,461,472,484,482,493,499,492,499,511,516,530,528,535,550,554,552,542,542,543,562,595,587,589,596,599,599,596,593,586,579,569,563,553,550,542,534,533,526,518,526,524,522,534,555,551,552,558,556,554,546,536,529,527,521,512,512,515,515,510,504,501,527,558,569,566,585,591,592,592,583,576,569,568,563,554,544,543,536,531,533,530,521,515,507,497,506,512,503,494,489,487,482,481,475,481,479,491,519,530,533,550,542,538,535,527,523,514,504,499,503,497,491,483,478,476,479,504,509,501,502,511,514,506,495,488,497,496,499,496,497,497,500,493,489,479,473,469,463,458,461,462,464,473,486,488,503,504,498,488,478,476,469,481,485,482,474,464,457,457,453,446,437,429,424,417,415,425,434,437,429,423,416,411,407,410,425,419,430,455,472,471,469,463,460,453,455,458,451,446,440,458,455,461,458,463,471,470,477,474,480,494,489,489,486,477,478,477,471,473,468,459,450,443,435,426,419,416,414,410,409,415,413,406,406,399,392,390,389,398,402,404,398,392,387,383,377,369,364,364,368,368,362,356,352,344,339,337,338,334,333,328,331,340,338,332,325,319,312,308,304,299,295,291,286,283,278,274,272,270,266,263,265,265,262,261,258,254,253,251,248,245,242,238,234,231,228,225,222,218,214,211,209,209,208,204,199,197,194,191,188,186,183,179,176,173,171,170,168,164,163,160,159,156,154,152,28,28,28,28,28,28,27,28,27,26,26,27,26,26,26,25,25,25,24,25,24,24,24,24,25,25,24,24,23,24,22,23
90,89,89,91,94,94,93,92,92,92,93,92,92,91,90,90,90,93,94,93,93,92,92,91,92,91,91,90,89,90,90,91,91,90,90,89,88,89,90,89,89,88,87,87,87,90,91,90,88,89,88,91,91,91,89,89,88,88,89,91,90,90,91,90,91,91,91,90,90,90,89,89,92,93,92,91,90,90,92,93,92,91,91,91,90,91,92,92,92,91,90,91,91,93,93,92,93,93,92,92,95,97,96,95,94,94,95,97,97,96,95,94,94,95,98,97,97,96,95,95,95,97,96,96,95,94,95,95,100,100,98,97,97,99,101,100,100,99,98,98,99,101,101,99,98,98,97,97,98,98,96,95,95,94,96,98,99,98,97,95,95,95,96,95,94,93,94,92,92,93,94,93,92,92,92,92,92,91,90,90,89,89,91,93,92,91,91,90,90,90,91,90,89,88,88,89,91,91,90,90,90,89,90,92,93,91,90,90,88,91,93,95,95,94,94,93,93,93,92,92,91,92,91,93,94,95,93,93,92,92,92,92,91,91,91,91,90,93,93,92,92,91,91,90,90,90,90,90,90,89,89,90,94,93,92,91,92,91,91,93,92,92,92,92,92,94,94,94,94,94,94,94,94,93,94,94,94,94,95,98,97,97,96,95,95,95,97,96,95,94,94,94,94,96,96,95,95,96,97,96,97,96,95,95,95,95,96,100,99,99,98,98,97,97,96,96,95,95,94,95,97,96,97,98,99,97,99,100,99,97,97,97,98,102,108,109,108,108,109,110,110,111,112,116,118,119,119,123,124,123,124,124,124,122,122,121,121,121,121,121,127,138,140,141,142,145,153,160,163,164,169,171,170,168,167,169,170,170,169,168,166,165,165,165,164,162,160,159,157,156,156,155,153,154,154,152,151,150,151,149,149,149,147,146,145,143,142,141,140,140,139,138,136,136,136,136,137,135,134,134,132,134,133,131,131,131,129,129,130,130,132,134,135,134,133,133,131,131,131,133,133,134,135,135,135,136,136,137,136,135,135,134,133,135,136,144,145,144,144,144,145,144,142,146,148,149,149,148,147,148,150,150,149,149,151,153,150,153,156,154,156,156,156,157,159,168,171,170,173,176,176,180,187,185,183,182,184,189,187,189,191,190,187,189,191,193,193,193,197,199,197,195,194,193,193,199,205,206,204,203,200,207,211,214,211,207,207,205,203,205,212,213,210,209,214,218,218,216,216,215,214,215,224,228,228,228,226,226,224,231,235,237,236,235,232,231,229,227,227,227,230,230,232,234,234,232,233,233,231,233,231,230,234,235,234,232,232,236,236,232,232,230,233,232,231,236,239,237,238,240,238,238,235,234,234,236,235,233,231,232,228,228,229,228,227,226,225,226,227,226,223,222,222,223,222,220,221,222,220,218,218,220,221,218,215,217,219,217,218,222,219,217,217,221,220,219,217,216,217,216,217,215,214,210,210,209,209,212,210,208,209,209,209,210,210,208,207,204,206,207,206,202,200,197,196,192,195,197,195,194,191,190,190,188,188,191,190,188,187,187,185,186,183,182,184,185,184,183,181,178,177,177,176,175,172,172,173,172,174,175,174,172,171,169,168,166,165,163,163,163,165,167,166,164,164,163,165,168,169,167,165,165,164,165,169,167,165,164,162,162,163,162,160,158,159,158,158,158,157,157,155,153,153,154,153,152,151,151,151,153,153,152,153,152,150,149,149,148,147,145,143,142,146,148,145,145,145,146,146,145,145,146,147,145,144,145,145,145,143,142,141,145,149,147,146,145,145,145,148,147,145,144,143,143,143,145,143,143,143,143,142,142,140,138,138,137,137,140,140,139,137,136,136,136,136,135,135,134,135,137,138,140,139,138,138,138,140,143,140,140,139,138,137,139,138,138,136,135,135,138,137,138,138,137,137,140,143,143,144,143,141,141,142,145,145,143,141,141,140,141,141,140,139,138,138,140,140,139,139,138,138,139,140,139,139,141,139,139,139,138,137,136,135,136,137,138,137,135,134,132,132,135,135,133,133,132,130,130,130,129,128,128,128,130,131,132,131,130,132,133,133,135,135,134,132,130,130,129,130,129,128,128,127,127,126,125,124,121,121,121,121,121,120,121,124,125,125,123,123,122,121,122,122,122,121,120,120,119,120,122,120,119,119,117,117,119,122,121,120,119,118,116,116,115,115,113,114,113,113,96,96,96,95,95,95,97,95,95,95,95,94,95,96,96,96,96,96,96,95,95,95,95,94,94,94,95,96,94,94,94,94
23,23,23,24,23,23,23,22,23,23,23,23,24,24,24,25,24,26,25,24,25,24,25,24,24,24,23,24,23,24,24,23,23,23,23,22,23,23,23,23,23,24,23,24,23,23,23,23,23,23,24,24,23,24,23,23,23,23,23,23,22,22,22,21,23,22,22,22,22,22,23,22,23,23,23,23,24,25,26,29,30,30,31,31,30,30,29,29,29,29,29,29,30,30,31,30,30,31,31,30,30,30,30,30,29,29,29,29,29,29,28,28,27,27,27,27,26,27,27,27,27,26,26,26,26,25,26,26,25,25,25,24,25,25,25,24,24,24,24,24,23,23,23,23,23,24,22,22,23,23,24,24,24,23,23,23,24,24,25,24,24,24,24,24,23,23,24,24,24,22,23,23,24,24,23,24,24,24,23,23,23,24,23,23,23,23,23,22,24,23,24,24,24,25,25,25,25,25,26,26,26,26,27,27,28,27,28,28,27,27,26,27,27,28,29,27,28,27,27,27,27,27,27,27,27,27,26,27,27,27,27,26,26,26,26,25,25,25,25,25,26,25,25,25,25,26,25,26,25,25,25,24,25,26,28,27,28,27,26,27,27,26,26,26,26,26,26,25,25,25,25,24,25,25,25,25,24,24,24,23,23,24,23,24,24,24,24,24,24,24,24,23,24,23,23,24,24,23,23,23,23,23,23,23,24,24,23,23,23,22,23,24,23,22,23,23,22,22,22,22,22,21,22,21,21,22,22,22,22,21,22,22,22,21,20,22,21,23,23,22,23,23,23,24,23,24,24,24,24,25,25,24,25,23,23,23,23,22,23,23,22,22,23,23,24,23,23,23,23,23,22,23,23,22,22,22,22,24,23,23,23,23,22,23,23,23,23,23,22,22,22,23,22,23,22,22,22,23,23,22,22,22,22,22,22,21,22,22,22,23,24,23,24,24,23,23,23,24,23,23,23,23,23,23,23,23,23,24,22,22,23,23,23,23,23,22,23,22,22,22,21,21,21,22,21,21,22,22,22,22,21,21,22,23,23,23,23,23,23,23,22,22,23,23,23,23,23,24,23,23,23,23,23,23,24,24,24,24,24,25,26,31,35,39,40,40,41,44,50,54,55,57,62,70,79,82,80,85,92,93,94,92,91,94,103,108,110,112,112,111,110,116,127,128,138,153,169,200,222,226,222,224,223,229,243,256,261,266,261,259,263,269,275,280,285,305,318,329,339,344,362,392,414,422,447,462,460,458,483,530,559,560,566,566,570,581,593,603,609,615,611,609,602,613,642,648,664,682,691,715,736,757,758,766,756,750,746,743,734,720,716,726,723,736,770,826,826,814,811,798,786,772,773,768,791,818,894,953,945,956,972,982,981,982,981,982,982,981,982,973,981,982,981,972,958,946,927,912,895,882,867,858,846,834,831,827,829,820,815,801,788,787,792,795,805,805,823,824,825,824,817,805,830,838,854,854,851,844,859,855,856,940,941,970,968,966,966,977,980,980,980,981,981,981,981,980,979,979,980,980,980,980,966,960,960,948,944,926,908,898,887,885,874,865,857,849,834,826,814,808,834,849,850,834,823,809,799,788,778,773,778,770,759,745,742,750,740,734,731,733,729,719,713,746,786,784,772,781,802,803,792,782,781,783,793,779,764,753,744,736,729,723,722,739,761,762,774,786,787,776,768,759,786,842,864,863,886,903,913,914,910,912,902,894,885,878,876,871,865,851,856,847,832,819,809,794,797,793,782,786,808,803,805,823,829,820,809,797,782,772,764,751,738,731,723,711,700,690,701,701,689,679,682,673,666,660,647,638,636,625,622,640,635,627,621,612,601,594,590,581,575,571,569,563,558,557,569,589,582,572,568,573,573,574,570,581,603,601,602,610,614,613,613,615,616,609,597,596,588,578,585,598,599,605,601,613,621,624,614,607,601,589,583,578,570,574,568,558,548,542,536,529,528,520,511,505,502,505,503,495,488,486,476,474,482,485,483,478,470,467,462,462,469,470,461,454,450,458,460,453,445,441,434,432,424,417,416,411,404,407,406,410,421,424,425,432,431,425,423,420,416,410,405,404,401,397,392,386,379,376,374,369,367,381,397,397,406,413,409,406,402,399,399,397,392,387,380,377,371,377,374,372,364,358,356,354,352,349,344,338,335,332,328,325,320,316,312,308,304,300,295,291,286,282,279,276,272,19,20,19,20,20,20,20,20,20,20,20,21,20,21,20,20,20,20,20,20,20,20,21,20,20,20,20,19,20,20,20,19,20,20
93,94,95,94,95,95,94,94,95,95,94,94,94,93,93,93,94,94,94,94,93,93,95,97,97,96,95,95,95,95,95,94,94,94,94,94,96,97,96,96,96,95,95,95,94,94,94,94,94,94,96,97,96,96,96,95,94,95,95,95,95,95,94,95,96,95,95,94,94,94,93,93,92,92,92,90,91,91,91,91,91,90,90,89,88,89,89,89,89,89,89,90,93,93,93,93,93,93,94,95,94,95,94,93,93,95,94,94,94,93,93,94,95,94,94,93,93,92,93,95,95,94,94,94,93,93,93,93,92,92,92,92,93,94,94,94,92,93,93,92,92,92,92,91,91,90,92,92,92,91,91,89,90,90,90,90,89,89,88,88,91,93,92,92,91,91,90,92,92,91,91,91,92,92,92,96,95,95,93,93,95,96,96,96,95,95,95,94,96,96,94,94,94,94,93,94,94,94,93,93,92,92,95,94,94,93,93,92,93,95,93,93,92,91,92,92,93,93,92,91,91,92,95,97,96,96,95,95,96,97,99,97,96,96,96,97,98,98,97,96,95,96,98,101,102,102,102,104,104,106,108,109,109,107,106,106,107,108,107,107,106,106,106,108,111,110,110,110,111,113,115,115,113,113,111,111,111,111,109,109,108,108,110,114,118,121,124,127,130,134,137,136,135,136,137,138,135,135,134,133,132,130,131,133,134,137,139,142,145,148,150,148,149,148,147,145,144,147,148,146,145,144,146,146,146,150,152,152,151,152,151,152,153,151,153,156,159,161,167,170,170,171,174,182,186,189,189,189,187,186,186,186,185,187,190,189,188,189,186,186,188,192,192,189,189,196,198,198,199,201,204,208,214,213,211,211,209,208,207,207,213,220,224,229,229,227,228,231,236,245,261,275,283,281,283,282,283,282,283,285,294,299,306,304,300,304,306,307,304,299,299,295,293,290,290,307,322,325,324,329,326,322,319,320,317,315,311,310,308,306,303,302,302,299,294,293,289,288,288,292,292,294,294,289,285,284,284,284,283,283,284,282,281,280,278,277,273,270,266,264,261,259,258,255,254,254,254,253,253,253,251,247,247,245,243,241,238,235,233,232,231,231,231,231,229,229,229,227,225,223,223,222,222,223,226,228,227,224,222,220,218,215,213,211,210,210,210,211,210,210,208,205,204,203,203,202,200,198,198,196,195,198,198,196,196,195,196,195,193,196,194,195,194,194,194,192,191,191,193,194,192,193,191,190,189,186,184,183,183,187,185,185,187,189,188,187,188,185,182,183,179,179,181,183,184,185,184,183,185,186,184,184,185,187,189,194,193,193,191,190,188,187,188,187,186,188,188,192,197,197,201,204,207,204,204,206,204,204,202,206,207,208,206,209,208,207,207,205,203,208,207,205,207,215,214,212,209,210,211,216,224,222,219,217,215,215,216,218,217,214,212,212,216,222,224,225,227,224,222,223,227,226,224,225,230,228,226,225,222,220,218,220,223,229,233,231,230,230,232,233,231,231,229,227,230,229,226,227,231,233,233,234,236,235,231,231,233,234,236,236,234,234,231,231,233,233,231,227,225,222,221,222,219,221,222,223,223,223,222,220,219,217,218,224,228,226,223,223,224,225,227,226,224,222,219,217,219,221,218,215,214,213,211,209,210,209,210,208,206,209,210,207,206,206,204,202,199,197,196,194,192,193,191,190,191,189,187,187,186,185,184,184,183,182,181,180,181,184,186,184,181,179,178,178,177,180,181,182,185,185,186,185,184,186,190,190,188,191,190,188,188,189,187,184,184,183,184,183,182,181,179,178,178,176,174,173,171,167,167,166,168,173,175,174,175,178,178,179,178,176,174,174,174,174,173,173,174,175,177,176,177,175,173,171,169,168,168,166,168,168,167,167,172,173,171,168,166,164,163,163,161,160,159,158,159,160,162,161,160,159,157,156,157,157,156,154,153,152,151,151,152,150,149,149,150,149,147,145,144,143,144,145,147,145,144,142,141,142,141,141,144,145,143,143,142,141,139,138,136,134,134,133,134,133,131,130,129,130,130,130,129,128,127,127,127,127,126,125,123,124,124,123,122,121,121,120,120,119,117,116,115,115,118,119,119,120,122,121,121,123,122,121,120,119,118,118,119,118,117,116,115,115,116,115,113,112,112,112,115,119,119,119,119,118,119,119,120,121,123,122,122,122,123,122,124,126,126,90,91,91,91,91,90,90,90,92,92,92,91,92,91,91,91,91,91,90,90,89,91,92,92,92,92,92,91,91,92,92,91,90,90
20,20,20,20,20,21,21,21,21,21,20,20,20,21,20,21,20,21,21,20,20,20,21,20,20,20,20,20,20,20,20,21,20,20,20,20,20,19,20,20,20,20,20,20,20,20,20,20,20,20,20,21,21,21,22,22,22,22,22,21,22,22,23,22,23,22,22,24,23,23,23,23,23,22,23,24,23,23,23,24,24,23,23,23,24,24,23,23,25,24,24,24,23,24,24,25,25,24,24,24,24,24,24,25,25,25,24,24,23,24,25,25,24,25,24,24,25,25,25,25,25,25,24,25,25,24,24,24,24,24,24,24,24,24,24,25,24,24,25,24,24,23,23,24,23,23,23,23,23,23,24,24,23,24,24,23,23,23,23,23,24,23,24,23,24,23,23,23,24,24,24,24,24,24,25,25,24,25,25,25,24,25,24,23,24,23,23,23,23,24,23,23,24,24,24,23,24,23,24,23,24,23,23,24,23,24,23,23,23,23,23,23,23,23,24,23,24,23,24,24,23,23,23,23,24,23,23,23,24,23,23,23,24,24,24,23,24,24,23,23,23,23,23,23,23,23,23,24,23,24,23,23,23,23,23,23,23,22,22,23,22,23,23,22,22,23,23,23,23,23,22,22,22,22,23,22,23,23,22,23,22,22,22,22,21,22,22,22,21,21,22,21,21,21,22,22,21,21,21,21,21,21,22,21,22,21,21,21,21,20,22,21,22,20,21,21,20,21,21,21,21,21,21,21,21,20,21,21,22,21,22,21,21,22,21,21,22,22,22,22,22,21,22,21,22,22,21,21,21,21,22,21,21,21,21,21,21,21,21,21,21,21,21,22,21,22,21,20,22,22,22,21,21,22,21,21,21,21,21,21,21,21,21,21,21,21,21,21,21,21,21,21,22,21,21,21,21,22,22,23,23,23,23,22,22,22,22,22,23,22,22,23,22,22,22,23,22,22,23,22,22,22,21,22,21,22,22,22,22,22,22,21,22,23,23,22,22,23,24,23,24,24,24,24,24,24,25,25,25,26,25,25,25,24,25,24,24,25,25,25,26,26,26,25,26,25,25,25,30,33,33,35,35,35,35,34,33,34,38,39,38,38,38,38,41,41,40,40,39,40,39,39,39,38,39,38,37,37,37,38,39,40,39,39,39,38,38,37,37,37,37,36,36,35,34,34,33,33,33,32,32,32,31,31,31,31,32,32,35,36,36,36,35,34,35,34,34,34,34,35,34,34,35,35,34,35,33,35,33,33,33,33,33,33,33,33,32,32,31,31,30,30,30,30,29,29,30,29,30,29,29,29,29,29,29,28,28,29,28,28,28,28,28,28,27,27,27,27,26,26,27,27,27,27,27,25,25,26,25,25,25,25,25,24,25,25,24,25,24,24,24,23,23,22,23,24,26,28,29,36,36,39,44,52,57,58,60,67,69,69,70,74,80,87,89,94,97,105,114,113,111,109,115,134,152,160,170,193,215,219,235,241,239,243,259,285,299,318,326,326,344,361,379,392,414,426,428,456,479,532,596,606,608,632,645,655,666,689,771,845,880,867,868,887,898,884,885,884,871,889,899,893,882,878,889,889,881,883,877,883,875,883,898,902,901,926,928,926,920,915,896,891,898,899,902,897,889,873,876,868,861,856,844,865,893,903,908,914,905,916,938,949,952,946,939,925,915,912,944,965,951,952,963,969,965,961,946,931,918,899,883,868,853,846,840,832,821,811,810,808,798,795,793,785,771,756,746,729,716,704,690,676,666,659,651,640,646,650,647,664,671,667,665,687,696,690,686,672,676,676,677,671,668,665,653,645,645,637,648,674,675,676,689,695,697,693,688,688,687,681,682,695,696,692,693,682,678,667,653,647,640,639,639,627,617,633,637,633,641,642,643,641,635,634,633,656,657,656,659,657,646,648,640,631,631,629,621,611,604,598,594,598,599,605,610,604,601,598,588,577,570,565,566,562,562,567,572,572,570,563,560,552,541,532,523,518,519,517,513,506,518,535,531,529,522,521,515,510,501,497,499,508,499,502,504,497,492,488,483,478,469,464,456,448,444,439,437,431,424,417,414,418,416,412,408,402,395,388,385,382,376,368,365,364,362,358,351,349,348,348,344,341,337,333,328,324,323,322,317,314,313,309,305,302,297,293,290,287,285,282,280,277,274,270,267,264,262,258,256,252,249,247,245,243,240,20,22,21,21,21,22,21,21,21,21,21,20,21,21,20,21,21,21,21,21,21,22,21,21,21,22,21,21,20,22,21,21,22,21,21,21
89,89,92,93,92,91,91,92,92,93,92,92,91,92,91,93,94,94,94,93,93,92,92,93,93,92,92,92,92,94,94,94,93,92,92,93,92,92,91,91,92,91,90,92,91,91,92,90,91,91,92,91,92,92,91,91,91,92,93,92,91,92,91,91,93,92,93,92,91,91,91,95,95,94,95,94,94,94,96,95,95,94,94,94,95,97,97,97,97,97,97,96,97,97,97,96,96,96,97,98,97,96,96,95,95,96,97,96,97,97,99,98,99,100,99,98,98,97,97,96,96,96,96,96,97,95,98,96,96,95,94,94,94,95,94,93,93,93,93,92,95,95,94,95,95,94,94,95,95,93,93,93,92,94,96,94,95,94,94,94,97,96,96,96,96,95,96,99,99,98,98,98,98,98,98,98,97,97,97,96,97,99,98,98,97,96,96,94,96,95,95,94,94,93,93,95,94,94,93,93,93,93,93,93,93,92,92,92,93,95,94,93,93,93,92,92,91,91,91,90,89,90,91,93,92,93,93,93,93,94,93,92,92,92,91,91,94,94,93,92,93,92,92,94,94,93,94,94,94,94,94,94,94,94,94,93,93,95,94,93,93,93,92,93,93,94,92,93,92,92,92,92,92,90,90,90,90,91,91,90,89,89,88,89,88,89,89,89,87,87,87,87,87,87,87,86,87,87,87,87,87,86,86,86,87,89,88,88,88,88,87,88,89,88,88,88,87,88,88,89,90,90,89,88,88,87,87,87,86,87,85,86,87,88,88,88,88,88,88,90,90,90,89,89,89,88,89,89,89,88,89,88,88,89,90,88,88,87,87,86,88,87,87,86,86,86,86,87,87,87,87,87,86,87,87,87,87,87,86,86,85,87,87,86,86,85,85,86,87,86,87,88,88,87,87,87,87,86,86,86,86,86,88,88,88,87,88,87,87,87,87,87,87,86,86,87,88,88,88,87,87,87,87,87,86,87,85,85,86,87,86,86,85,85,84,86,88,91,92,91,91,92,96,102,106,108,108,108,107,107,107,108,107,106,108,113,120,119,123,124,133,140,143,156,176,192,196,211,224,221,218,217,216,222,224,224,228,229,229,231,231,228,228,230,229,228,233,233,236,237,236,234,232,230,229,236,238,237,238,239,237,235,234,236,233,234,240,246,252,262,261,262,259,257,262,261,259,257,262,269,278,287,293,298,296,297,294,294,295,293,293,288,285,283,283,286,284,281,279,276,272,270,266,262,260,256,253,250,249,247,245,242,241,241,237,235,235,234,230,227,224,223,225,226,224,222,223,224,225,223,222,221,220,219,217,216,213,211,209,207,204,202,200,197,194,194,192,191,190,188,186,185,184,183,182,181,179,177,175,173,172,170,169,167,166,164,163,162,161,159,158,156,156,155,153,153,151,151,149,148,146,144,144,142,141,142,143,143,142,142,141,140,139,140,139,139,137,136,136,135,135,135,134,135,134,134,134,133,134,132,131,130,130,128,128,129,128,128,130,134,135,137,137,138,140,143,144,142,141,140,142,143,143,141,140,138,137,137,136,134,132,132,136,136,135,134,133,132,132,143,145,150,154,159,161,167,171,171,171,174,172,173,173,172,175,177,184,187,190,189,187,186,189,194,196,196,198,201,200,199,201,204,203,204,201,201,201,202,203,204,209,214,213,213,214,211,209,211,215,213,214,216,218,217,215,218,221,222,224,225,226,227,228,230,229,227,226,226,225,224,226,227,230,229,229,228,227,229,228,227,226,225,228,234,234,232,231,230,230,232,232,231,230,231,234,236,236,233,232,233,233,235,235,235,233,233,232,232,230,228,229,231,227,228,230,229,226,224,223,223,225,226,225,222,219,219,221,220,221,219,221,220,217,216,218,220,219,217,214,212,214,213,211,209,206,206,206,205,205,202,201,201,205,207,208,206,203,202,200,201,201,202,201,200,198,199,203,203,200,198,196,196,200,201,199,197,196,195,193,192,190,187,185,185,183,185,183,180,180,180,181,181,184,183,181,179,177,176,176,175,173,171,170,170,170,169,167,166,165,163,166,165,163,163,161,159,159,159,158,157,155,153,153,153,153,153,150,150,149,149,149,148,146,144,143,141,142,142,140,140,141,140,139,139,139,137,135,134,134,133,134,133,133,130,129,131,131,130,128,127,126,125,126,128,127,127,125,125,125,125,124,122,122,123,123,95,98,99,98,97,97,96,96,96,95,95,94,94,94,94,95,95,95,94,94,93,94,94,93,93,94,94,94,94,96,96,95,96,95,95,95
21,21,21,20,21,21,21,22,21,21,21,21,20,21,20,21,21,21,20,20,21,22,21,21,20,21,20,20,20,20,21,20,20,20,20,20,21,21,21,21,20,20,21,21,20,21,21,21,20,21,21,21,22,21,20,20,21,21,21,21,21,21,21,21,21,21,21,21,21,21,21,22,21,21,21,21,22,22,21,21,21,21,21,22,20,21,21,21,21,21,21,21,21,21,21,22,21,22,21,21,21,21,21,21,22,20,21,21,21,21,21,21,21,21,21,20,22,22,21,22,22,21,21,21,21,21,21,22,22,21,21,21,21,21,21,21,21,20,20,20,20,20,20,20,20,20,21,21,20,20,21,21,20,21,21,21,20,20,21,20,21,21,20,21,20,20,20,20,20,19,21,21,21,21,20,21,20,21,21,20,20,20,20,20,20,20,20,20,20,20,20,20,20,19,19,19,20,20,20,20,20,20,21,20,19,20,19,19,20,20,20,20,21,21,20,21,21,21,21,21,20,20,20,20,20,20,20,21,20,20,20,20,20,20,20,20,20,20,20,20,20,21,20,21,20,20,20,20,20,20,20,20,20,21,20,20,20,20,20,21,20,20,20,20,20,20,19,20,20,20,20,20,19,19,20,20,20,20,20,20,20,20,20,21,21,21,21,21,20,21,20,20,21,20,21,21,21,20,21,20,21,20,21,20,20,20,20,20,21,20,20,21,20,21,21,21,21,21,20,20,20,20,20,21,20,20,20,21,21,20,21,20,20,21,20,21,21,21,21,21,21,21,21,20,21,21,21,20,20,20,20,20,22,21,21,21,21,20,22,21,21,21,21,21,21,21,21,21,21,21,21,21,21,20,20,21,20,21,20,22,20,21,22,21,20,21,20,21,20,20,20,20,21,21,20,21,21,21,20,21,20,20,20,20,21,20,20,19,20,20,20,20,19,20,20,20,20,20,20,20,20,20,20,21,20,21,20,20,20,20,20,21,20,21,21,21,22,21,21,20,20,21,21,21,20,21,20,21,20,20,21,20,20,20,21,20,20,20,20,20,20,20,20,20,20,20,20,19,20,20,20,20,20,19,19,20,20,19,20,20,20,20,20,19,20,19,20,21,20,20,19,19,19,20,20,19,19,20,20,19,20,20,20,20,19,20,20,20,19,19,19,20,20,19,20,19,19,20,20,20,20,20,19,19,20,20,20,20,20,20,19,20,20,20,20,19,20,20,20,20,19,19,19,20,20,20,20,19,20,19,20,19,19,20,19,20,20,20,20,21,20,20,20,20,20,20,20,20,20,20,20,19,20,21,21,20,20,19,20,20,19,19,20,20,19,20,19,20,20,19,19,20,19,20,20,20,20,19,20,20,20,20,20,20,20,20,20,20,20,20,20,20,20,20,20,20,20,20,20,20,19,19,20,20,20,19,19,20,20,20,19,19,19,20,20,20,20,20,19,19,19,19,19,20,20,20,20,20,20,21,20,20,20,20,20,20,20,21,20,21,21,20,20,20,20,21,20,20,21,21,21,21,21,20,20,21,20,20,20,20,20,20,20,20,19,20,19,19,20,19,20,20,20,19,19,20,20,21,21,20,20,21,21,20,20,21,20,20,21,21,20,21,21,20,22,21,20,20,21,21,20,22,23,22,23,23,23,22,23,24,23,23,22,22,22,23,23,22,23,22,23,22,22,22,22,22,24,24,24,24,23,24,23,23,23,24,24,24,23,24,25,24,25,26,26,27,28,28,29,29,30,28,28,27,27,27,27,27,27,26,27,27,27,27,26,27,27,28,28,29,28,28,28,29,28,29,29,29,29,29,29,30,30,29,30,30,29,30,30,30,30,31,32,33,33,33,33,32,32,33,32,32,32,31,31,31,31,31,32,33,36,44,47,47,47,47,47,46,45,45,44,44,43,43,43,44,45,45,44,43,46,51,55,58,57,56,57,62,68,75,81,83,89,96,97,100,102,101,99,99,98,97,96,96,98,97,100,103,104,103,104,105,103,102,106,112,115,119,124,123,128,134,131,129,128,128,125,126,129,131,130,130,135,151,167,175,177,177,175,183,198,211,228,230,235,235,234,232,238,255,254,250,250,259,281,284,284,294,304,307,322,355,384,384,386,385,384,380,396,439,488,541,571,574,586,602,597,595,601,597,612,637,646,657,692,739,774,783,784,789,776,764,759,19,20,20,20,20,19,20,19,19,20,20,20,19,19,21,20,20,20,20,20,20,19,20,20,20,20,20,21,20,20,21,20,20,21,21,21,20,21
94,95,93,93,92,94,95,95,94,95,96,96,95,95,95,94,93,94,93,92,94,96,98,99,101,100,99,100,99,98,98,97,96,95,98,98,97,97,97,96,96,97,96,96,96,95,95,96,96,95,95,95,94,95,93,94,93,93,93,92,93,93,93,93,94,94,93,94,95,95,95,94,94,93,94,95,96,96,95,94,94,95,95,94,94,95,94,95,95,96,96,95,95,94,95,94,94,93,93,92,93,92,93,94,94,93,92,93,93,93,93,93,93,93,92,92,93,95,95,94,94,93,93,92,91,92,91,90,89,90,90,90,90,89,89,89,89,89,89,89,88,88,87,88,89,88,88,87,87,87,88,88,87,87,87,87,86,87,88,88,87,87,87,86,87,88,87,87,86,86,86,87,88,87,87,87,87,87,87,89,89,89,89,89,89,89,89,89,89,88,88,88,88,88,88,87,86,86,87,87,87,86,87,87,86,87,89,88,87,87,86,85,86,89,88,88,89,88,88,87,90,89,89,87,88,87,88,90,89,89,89,89,89,91,91,90,90,89,89,89,89,91,90,90,89,89,88,89,88,88,88,87,87,87,89,91,90,89,88,88,89,90,90,89,89,88,87,88,91,91,91,90,90,89,90,90,90,90,89,88,88,89,92,94,93,92,92,92,91,92,92,92,91,91,91,91,94,94,93,93,93,93,93,93,92,91,91,90,90,92,94,93,92,91,91,91,91,92,93,92,92,91,93,95,95,94,94,93,93,93,93,93,92,90,90,90,91,93,95,94,94,93,92,92,93,93,92,92,91,91,92,94,95,94,93,93,92,92,93,92,93,92,91,91,92,94,94,93,93,93,92,92,93,93,92,92,91,91,92,94,94,93,92,92,93,94,94,93,93,91,91,92,95,95,95,94,94,94,94,95,93,93,92,91,91,91,92,92,91,91,91,90,90,92,92,92,90,90,90,91,93,95,94,93,92,93,93,94,93,93,93,91,91,92,94,96,94,94,94,94,94,94,94,93,93,93,93,95,96,96,96,96,95,95,95,94,93,93,93,92,92,94,94,93,93,92,92,92,93,93,93,92,91,91,91,92,92,92,91,90,91,91,91,90,90,90,89,89,91,91,91,91,90,90,89,89,89,89,89,89,88,88,91,92,91,89,90,89,90,90,91,91,90,89,88,88,91,93,92,93,93,92,92,94,94,93,94,93,93,94,96,98,96,96,95,96,97,98,97,97,97,96,95,96,99,99,98,98,97,96,97,97,97,96,95,95,95,97,98,98,97,97,97,97,99,100,99,97,97,96,96,98,101,100,99,98,97,98,99,99,98,98,97,96,96,98,99,99,98,98,97,98,98,97,97,96,95,95,95,97,97,96,96,95,95,95,95,93,93,92,92,92,92,94,94,93,93,93,91,92,92,91,91,91,89,90,91,93,92,92,91,91,91,91,92,90,90,89,89,90,90,92,91,92,92,91,91,91,92,91,91,91,91,92,93,94,93,93,93,94,95,96,95,95,95,94,94,94,97,100,102,103,106,108,110,111,114,118,120,119,122,126,126,130,135,139,142,142,144,148,149,149,158,164,164,166,165,164,164,165,168,168,175,182,183,196,205,208,213,223,221,219,218,216,214,216,216,214,219,226,225,233,241,237,234,232,232,247,272,294,310,329,342,344,342,340,337,342,347,348,365,380,376,371,372,383,387,401,411,416,424,428,423,419,417,421,418,415,414,411,408,420,431,428,427,433,442,439,432,430,426,423,422,421,431,449,460,458,470,491,499,504,512,529,522,513,515,519,518,515,507,500,504,497,508,528,534,534,528,526,520,521,523,515,507,505,509,511,505,498,492,488,492,493,488,481,477,470,463,458,456,456,458,457,457,460,453,446,440,436,429,422,417,414,414,412,414,413,411,411,406,400,394,389,384,380,375,369,363,359,352,348,345,345,342,337,332,327,325,320,316,311,309,306,302,299,293,288,284,282,277,273,269,264,261,259,255,253,252,251,248,245,243,240,240,239,238,234,232,229,226,224,223,223,220,218,216,213,210,207,205,202,200,200,199,197,194,193,193,191,188,186,185,183,182,180,178,177,176,176,176,174,174,174,173,173,176,175,175,174,173,171,170,172,175,174,172,172,171,170,168,170,173,174,177,178,181,181,179,181,182,183,181,181,183,185,187,189,195,198,199,198,198,93,93,92,93,92,92,92,91,92,92,93,92,92,92,91,91,91,91,90,89,89,89,89,89,93,92,92,91,91,90,90,90,89,90,89,88,89,89
