15,16,16,16,15,16,16,15,16,16,16,15,16,15,15,16,16,15,16,16,16,15,16,16,15,16,16,16,16,17,15,16,16,16,16,16,16,16,16,17,16,16,16,15,16,17,16,16,16,17,16,16,16,16,17,16,16,15,16,16,15,16,16,16,15,16,16,15,15,16,15,15,15,16,15,16,15,15,16,15,16,15,15,15,15,15,15,16,15,15,16,15,16,15,15,16,15,16,16,16,15,16,15,15,15,15,14,15,15,15,15,15,15,15,15,15,15,15,15,15,15,15,15,15,14,15,15,15,15,15,15,15,15,15,14,15,15,15,15,15,15,15,15,14,15,15,16,15,15,15,16,16,15,16,15,15,15,15,15,15,15,15,15,16,16,16,16,16,16,16,16,16,16,15,15,16,15,16,16,16,16,16,16,16,16,17,16,16,17,16,16,16,16,16,16,16,16,17,16,16,16,16,16,16,16,16,16,16,16,15,15,16,16,15,16,15,15,15,15,16,16,16,15,15,16,16,16,16,15,15,15,16,15,15,16,15,16,16,16,16,16,16,15,16,16,15,16,16,16,16,16,15,16,16,16,16,16,14,16,16,15,15,15,15,15,16,17,16,16,16,16,15,16,16,16,15,15,16,15,16,16,16,16,16,16,16,16,16,16,16,16,17,16,16,16,17,17,16,17,16,16,17,17,17,17,16,16,16,16,16,15,16,16,15,16,16,17,17,16,16,16,16,16,16,16,16,15,16,16,16,16,16,15,16,16,16,15,16,16,16,16,16,15,16,16,16,16,16,16,16,16,15,15,15,15,16,15,15,16,15,16,16,15,16,16,15,15,15,16,15,16,16,15,16,17,17,17,17,17,21,24,26,28,28,28,28,28,28,28,29,32,34,35,38,39,39,38,38,37,37,36,36,36,36,35,35,34,34,33,33,34,32,33,32,32,31,31,31,32,30,30,30,30,30,30,30,30,30,30,29,29,29,29,30,29,29,30,30,30,30,31,30,31,30,30,31,31,30,32,32,30,32,32,32,32,32,32,32,31,32,34,33,37,39,40,41,44,43,44,44,43,43,45,46,47,46,47,47,49,49,49,48,48,47,47,47,49,48,47,48,51,51,51,51,50,50,51,50,50,50,49,49,48,48,47,48,49,50,49,50,49,49,49,49,52,54,59,59,58,57,56,55,54,53,52,52,53,54,55,54,53,52,52,51,53,52,52,53,51,52,56,58,60,61,60,59,58,59,59,59,58,57,57,58,58,58,59,59,58,59,58,57,57,57,56,54,54,54,54,53,52,51,53,54,53,53,53,51,51,52,53,52,52,52,51,50,51,50,51,52,52,51,51,51,51,49,49,49,48,48,48,49,52,51,51,50,50,51,50,50,49,48,49,49,49,50,50,49,50,51,50,51,51,49,49,48,48,48,48,49,49,49,48,49,47,47,46,47,47,47,47,47,47,46,46,45,45,44,44,43,44,44,44,43,42,42,44,43,43,43,43,44,42,42,43,42,42,42,41,40,42,42,42,42,42,43,43,43,43,43,42,41,42,43,43,42,42,42,44,45,47,48,48,48,48,48,48,47,46,47,46,46,44,43,44,44,43,42,43,43,42,41,41,42,42,41,41,41,42,43,44,45,45,45,45,45,45,45,45,44,44,45,44,43,43,43,43,45,46,47,47,46,46,45,46,46,46,47,46,48,48,48,48,49,50,49,50,49,49,49,49,49,49,49,49,49,49,48,47,47,48,47,47,46,46,46,45,44,45,45,46,46,44,45,44,44,45,44,43,43,42,43,44,43,45,45,46,46,45,45,44,43,42,42,42,41,41,41,41,40,40,38,39,39,40,41,43,43,44,44,44,44,43,44,43,42,42,42,42,42,43,41,41,40,40,39,39,40,39,38,37,37,37,37,36,36,38,37,36,36,36,37,36,36,37,36,35,35,35,34,35,36,35,34,33,34,33,33,33,33,32,31,31,31,30,30,30,31,31,32,34,35,34,34,34,33,33,33,33,33,32,31,31,32,32,31,31,31,32,31,32,33,33,34,34,34,33,33,33,32,32,32,32,31,31,30,31,31,31,30,31,30,29,29,29,29,29,29,28,28,28,27,27,28,27,28,32,38,43,47,48,49,50,50,53,56,58,59,59,58,57,56,55,54,53,52,52,51,51,49,50,51,54,53,53,52,51,50,51,55,56,56,59,61,60,59,60,62,62,63,63,62,62,61,62,67,72,73,75,81,82,81,81,79,78,76,78,79,78,17,16
79,79,79,79,79,79,78,78,78,78,77,78,80,80,79,80,79,79,80,79,78,79,78,78,79,81,81,81,80,80,80,80,81,81,81,81,81,81,81,83,81,81,80,80,80,82,81,82,82,80,81,81,81,81,81,81,82,80,81,81,82,81,81,81,80,80,80,81,81,80,81,80,81,80,81,81,80,80,80,81,81,80,80,80,79,78,79,79,79,79,79,78,77,78,79,79,79,78,77,77,77,78,77,77,77,76,76,77,78,78,78,78,78,77,77,77,77,78,77,77,77,78,79,79,78,78,77,77,78,77,76,76,76,75,76,77,77,76,76,76,77,76,77,77,77,77,76,76,76,77,77,77,78,77,76,76,76,76,75,75,75,75,75,78,78,78,78,78,78,78,78,78,78,78,78,77,78,78,78,79,79,78,79,80,80,80,79,78,79,78,79,79,79,79,78,79,79,79,78,79,78,78,78,78,79,79,79,78,78,79,79,80,79,78,79,79,78,80,81,80,80,79,80,80,79,80,79,78,79,78,78,80,81,81,81,80,80,80,80,80,80,79,79,79,78,80,79,78,79,78,78,78,78,79,78,78,78,77,78,77,77,77,77,76,76,77,78,78,78,77,77,77,77,79,78,78,78,78,78,79,79,79,79,78,78,78,79,79,79,79,79,79,79,81,81,81,80,80,79,80,80,80,81,80,80,79,79,80,79,80,79,79,79,79,81,82,83,81,82,81,81,83,82,81,81,80,80,81,82,81,81,81,81,80,82,82,82,82,81,81,81,82,83,83,83,82,82,81,82,81,81,80,80,80,81,81,82,82,82,82,81,81,81,81,81,80,80,79,80,81,82,82,82,81,82,81,82,81,81,80,81,81,81,83,83,83,82,82,82,81,81,81,81,81,82,83,84,84,84,85,84,84,85,87,87,87,86,86,85,85,87,89,88,87,87,87,88,89,88,89,88,88,90,96,108,122,126,126,127,135,148,152,157,167,172,183,201,214,221,221,226,239,252,279,303,308,313,313,325,344,365,372,369,384,407,447,464,477,477,507,554,573,573,602,622,624,618,613,608,616,643,652,653,680,691,681,674,666,665,664,654,662,684,711,734,728,740,741,737,752,777,778,768,761,763,756,748,750,754,748,751,754,785,791,809,815,817,817,807,794,787,791,783,771,774,774,774,767,757,746,742,743,751,743,740,733,743,734,734,726,718,724,739,754,813,848,846,861,858,850,842,835,827,828,820,829,828,818,808,795,782,775,782,776,792,787,783,774,766,759,753,742,733,722,724,746,739,748,745,742,771,785,804,797,787,783,771,757,746,736,745,754,747,740,729,736,735,722,715,707,698,689,679,668,661,670,674,673,679,676,670,666,655,644,638,637,634,632,636,629,627,632,625,617,612,614,607,609,621,622,613,606,597,590,582,572,567,562,575,586,588,596,588,583,581,576,578,573,565,557,547,539,532,534,533,535,536,534,535,549,572,578,573,569,597,619,618,623,625,617,620,616,617,612,615,608,600,591,580,570,565,556,548,547,572,569,586,607,620,639,629,626,627,620,625,621,615,620,617,616,610,606,600,612,616,609,611,610,604,610,612,622,617,634,634,640,641,652,642,637,626,616,606,598,598,615,624,634,623,636,648,644,642,642,661,661,656,658,656,671,688,680,668,660,672,705,714,713,720,739,729,719,710,721,731,720,718,734,729,718,711,702,689,683,675,679,679,676,678,673,678,678,696,718,729,762,757,745,735,733,727,718,719,724,721,725,716,716,713,715,716,705,705,699,709,706,714,705,693,687,697,727,744,750,748,757,752,739,729,717,707,717,730,735,745,735,726,718,708,709,712,718,719,714,708,713,730,731,725,718,707,707,703,710,720,729,722,710,696,693,712,713,736,748,741,734,725,721,722,730,734,768,776,814,815,835,844,831,826,821,808,799,785,776,790,796,796,795,788,777,771,764,776,774,766,774,772,770,761,753,741,735,725,744,761,797,800,799,792,783,772,761,753,741,731,733,727,714,708,698,690,688,688,684,687,693,721,742,727,717,707,695,683,672,662,657,652,641,633,626,618,609,599,591,585,580,593,589,583,575,567,583,608,638,651,642,633,622,613,605,598,589,582,575,566,558,548,541,534,527,519,510,503,495,488,482,477,470,464,458,451,446,440,434,427,422,415,409,404,400,397,390,385,380,376,372,368,362,356,351,346,342,338,337,331,326,320,316,312,307,302,299,293,289,285,282,278,274,270,266,262,259,256,252,248,244,241,237,234,80,80
16,17,17,16,17,16,17,16,17,17,16,17,16,17,16,17,17,16,17,17,16,17,17,17,17,17,17,17,18,18,18,18,18,17,17,18,19,18,19,18,19,18,19,19,19,18,19,19,18,20,20,20,19,19,20,20,20,20,20,20,19,19,19,20,20,20,20,19,19,19,20,20,19,20,19,19,19,19,20,20,20,19,19,19,19,19,20,19,19,19,19,20,20,19,19,19,19,20,20,19,19,19,18,19,20,20,20,19,20,20,20,19,20,20,20,20,19,19,20,19,19,19,19,19,20,20,19,19,19,19,19,19,20,20,19,19,19,19,20,22,20,20,20,21,20,20,21,21,21,21,20,21,21,22,21,21,21,22,21,22,22,22,22,22,21,21,21,21,21,21,21,21,21,22,22,22,21,22,21,22,22,21,21,21,21,21,21,21,21,21,21,20,20,20,20,20,20,19,19,19,20,20,21,20,20,19,20,19,19,20,19,19,19,19,19,19,19,19,19,19,19,19,18,18,18,18,19,19,19,19,19,18,18,18,19,19,19,19,19,19,18,19,20,19,19,19,19,19,19,20,19,19,19,18,19,19,19,19,19,19,18,18,19,19,19,18,19,19,18,18,19,18,18,19,18,18,19,18,19,19,18,18,18,18,19,18,18,18,18,18,20,19,19,19,19,18,18,20,18,19,18,18,18,18,18,19,19,18,18,18,18,18,19,18,18,18,18,18,18,18,18,19,18,18,18,19,19,18,19,18,18,19,19,19,18,19,18,19,18,18,18,18,18,18,18,18,17,18,17,17,17,17,18,19,18,19,18,19,18,19,18,18,18,18,18,18,19,18,18,18,18,18,18,19,18,19,18,18,17,18,19,18,18,18,18,19,18,18,17,18,17,17,17,18,18,18,18,18,18,18,18,18,18,18,19,18,18,18,18,19,18,18,17,18,18,18,18,18,18,17,18,20,19,18,19,19,19,18,19,18,19,18,18,18,19,18,19,19,18,18,18,18,19,19,18,18,18,19,19,19,19,19,19,19,19,19,20,19,19,18,18,19,19,18,19,18,19,18,18,18,19,18,18,18,18,18,18,19,19,18,19,18,18,19,19,18,18,18,18,19,19,19,19,19,19,18,19,19,19,18,18,18,18,19,19,18,18,17,17,17,18,19,18,18,18,18,18,19,19,18,19,18,19,20,20,21,22,20,20,21,20,22,21,22,23,22,22,24,24,24,24,23,23,24,26,27,28,28,27,27,27,28,29,28,27,27,29,29,28,29,28,29,30,31,31,31,31,31,31,31,32,32,33,33,33,34,33,34,34,35,34,34,35,35,35,36,38,39,40,40,39,38,38,38,40,41,41,42,43,45,46,48,48,48,48,47,47,47,46,46,45,44,44,44,46,49,51,50,50,48,48,48,47,47,48,49,48,48,47,47,45,45,44,44,43,43,44,43,42,42,42,41,40,41,43,44,44,44,45,45,44,44,44,43,42,41,42,41,40,40,39,40,40,40,39,39,38,38,38,40,43,43,42,42,41,41,41,41,39,39,39,39,38,38,38,38,38,37,38,38,38,39,38,39,37,37,36,37,38,36,36,37,38,41,41,41,42,41,40,39,39,40,39,38,38,38,38,39,37,37,38,37,37,37,36,35,35,34,34,34,33,33,34,33,33,33,32,33,33,32,32,31,31,31,31,31,32,31,31,31,31,30,30,31,31,31,30,31,37,41,41,42,43,45,46,48,48,48,49,51,52,51,53,52,54,53,53,53,53,53,52,51,50,50,49,48,48,48,47,47,47,48,47,47,47,46,45,44,44,45,45,44,45,44,44,44,43,43,42,43,42,42,41,41,40,40,39,39,40,39,40,39,40,41,41,41,40,40,40,40,42,42,42,42,41,41,40,40,39,39,42,44,46,47,46,45,45,45,48,48,47,48,50,50,49,49,48,47,47,46,46,45,44,44,43,44,43,42,42,42,42,42,42,43,43,42,42,43,43,43,44,43,42,42,41,42,42,44,42,42,42,41,42,41,40,40,39,40,39,40,39,38,38,38,38,38,38,38,38,38,38,38,38,38,39,38,38,37,38,37,36,36,36,35,35,35,34,35,35,34,35,33,34,33,33,32,33,33,32,32,33,38,43,45,45,47,49,50,49,49,48,48,50,51,54,56,59,60,60,63,69,70,69,68,67,67,67,66,66,66,65,63,62,62,62,61,61,60,61,64,65,64,62,62,67,71,71,70,71,72,76,81,82,84,87,89,87,17,18,17,17
79,80,79,80,80,80,80,79,81,80,80,81,81,80,80,80,80,80,79,79,79,80,81,81,80,81,81,80,81,81,81,80,80,80,81,81,82,81,81,80,80,80,81,80,81,80,81,81,81,83,84,84,83,83,83,83,84,84,84,84,84,83,84,85,84,85,84,84,84,84,83,83,83,84,83,83,84,84,84,84,84,84,84,84,83,83,83,82,83,82,83,82,83,82,82,81,81,81,81,81,81,81,81,82,82,83,84,83,83,83,82,82,83,83,82,81,81,82,83,82,82,82,82,81,82,81,81,81,81,81,81,81,82,82,81,81,81,82,82,82,82,82,81,82,82,83,84,83,83,82,82,83,83,82,82,82,82,81,82,84,85,84,85,84,84,83,83,82,82,82,82,82,82,84,84,85,84,84,84,83,83,83,83,83,83,83,84,84,83,83,83,83,83,84,82,83,82,83,83,82,83,83,82,82,82,81,82,81,81,81,81,81,82,81,83,82,81,82,81,81,81,80,80,80,79,79,80,80,79,80,80,80,79,79,80,79,79,79,79,79,79,80,81,80,81,80,79,79,80,80,79,78,79,79,80,81,82,82,82,81,81,81,80,81,81,81,81,81,81,84,83,84,84,84,84,84,84,84,83,84,84,83,83,84,83,83,83,83,83,84,84,83,84,83,83,84,84,86,85,85,84,84,84,84,84,83,83,84,83,83,83,85,85,85,85,84,84,85,84,84,83,85,84,83,84,85,85,84,84,83,83,84,84,84,83,83,83,83,84,83,83,83,83,82,81,82,82,81,81,81,81,81,83,84,83,83,83,82,83,83,83,83,83,83,83,83,83,82,83,83,83,83,83,83,83,83,82,82,83,84,83,84,83,83,83,83,83,83,82,81,81,81,82,84,84,84,84,84,83,82,82,83,82,82,82,82,82,83,83,81,81,81,80,80,80,79,79,79,79,79,80,83,82,82,81,81,80,80,80,80,81,81,81,82,83,83,82,83,82,82,81,82,82,82,81,81,81,82,83,83,83,83,83,82,82,83,82,82,82,82,81,82,82,82,81,81,80,81,82,82,82,82,83,83,82,83,83,83,82,83,82,83,83,84,83,83,83,83,82,83,84,83,83,83,83,83,82,83,83,82,83,83,83,84,84,85,86,88,92,94,95,100,103,108,111,119,135,154,172,182,187,199,197,196,200,218,237,243,258,274,283,325,346,353,366,392,400,404,418,435,435,443,464,477,502,520,512,512,539,540,547,546,542,533,533,534,526,527,533,559,582,589,600,601,617,621,614,635,637,644,674,679,678,672,664,678,689,686,710,725,734,755,758,782,795,789,800,789,779,777,791,794,813,810,798,796,787,775,764,766,777,772,758,757,747,793,850,857,892,906,906,906,901,901,895,894,917,933,934,952,941,927,913,903,909,919,905,898,892,897,891,882,874,888,891,891,890,891,886,874,876,875,884,884,881,881,875,864,850,840,828,817,832,823,828,828,820,811,804,803,802,811,807,806,801,798,787,792,790,799,795,785,791,787,808,801,787,775,763,755,746,742,738,732,728,726,721,718,746,756,798,801,804,794,781,773,777,773,777,769,779,779,782,789,800,799,806,800,786,772,763,757,745,732,736,735,731,740,732,728,754,752,742,744,732,743,743,755,756,759,749,738,727,721,721,714,710,712,701,693,682,677,672,668,666,654,645,642,637,628,645,640,631,623,617,615,618,651,664,666,681,706,720,732,736,726,721,715,729,739,732,729,725,724,717,735,752,776,792,783,791,793,791,782,798,803,819,811,800,807,810,801,791,782,772,776,769,756,747,734,729,741,733,749,749,752,743,743,748,772,777,788,781,783,784,774,762,761,767,770,785,782,771,763,760,762,760,755,745,735,727,737,732,720,712,699,688,697,729,748,776,773,784,792,784,772,772,775,767,768,786,793,785,779,767,753,740,735,733,732,723,728,740,732,720,708,700,693,695,696,696,702,703,699,689,686,680,714,733,764,771,761,765,763,756,749,742,740,731,728,724,714,712,704,701,707,699,688,690,688,689,681,675,677,675,667,658,651,643,633,627,621,619,616,613,608,602,593,587,577,575,571,574,586,583,593,605,639,635,633,632,625,621,610,600,612,608,605,604,613,611,604,597,590,585,578,571,561,554,552,546,541,534,527,520,513,505,500,496,491,483,477,470,464,459,454,447,441,435,430,425,421,421,419,414,409,406,403,397,389,383,377,370,365,359,356,351,346,342,337,332,329,325,320,314,310,305,85,84,84,84
17,17,18,17,18,18,17,17,18,18,17,17,17,18,18,18,18,17,17,17,17,17,18,17,18,18,17,17,17,18,18,18,18,17,18,18,18,18,18,17,17,17,19,19,19,18,18,18,19,18,19,18,19,19,17,18,19,18,18,18,18,18,18,19,18,18,18,19,18,19,18,18,19,18,18,18,18,19,18,18,19,18,18,18,18,19,18,19,18,18,19,20,20,20,20,18,19,21,20,20,19,19,19,20,20,20,20,19,20,20,20,20,20,20,20,19,19,20,21,20,20,20,21,20,21,21,21,21,21,20,21,20,20,20,20,20,20,21,21,21,21,20,20,20,20,20,20,20,20,19,20,19,20,21,20,20,20,20,20,21,22,21,21,20,20,20,20,21,20,20,20,19,20,20,21,21,20,20,20,20,21,21,20,20,20,20,21,21,21,20,20,21,23,25,26,27,28,27,29,28,29,29,29,31,33,33,35,34,35,36,35,35,37,40,42,41,40,40,39,40,39,39,40,39,39,38,38,38,39,39,39,39,40,40,40,42,43,42,42,44,45,45,44,44,44,44,44,45,47,47,48,49,48,48,48,48,47,47,46,46,47,47,49,51,51,51,54,55,56,57,58,58,57,59,57,57,55,56,57,56,56,56,57,58,59,58,58,57,56,59,61,60,61,61,61,63,65,67,69,72,73,72,71,70,68,67,67,65,65,65,64,64,64,63,63,61,62,64,66,66,66,65,63,66,68,70,72,72,71,70,69,68,68,68,68,67,66,65,63,63,62,63,62,61,60,60,59,57,57,57,56,56,54,54,53,54,54,55,55,54,54,58,59,59,61,62,63,62,61,59,61,60,60,60,59,57,57,56,55,54,53,54,56,57,57,57,57,56,55,55,55,55,55,55,55,55,53,53,53,53,52,52,51,52,52,52,51,51,50,50,49,49,52,52,54,55,54,53,53,52,52,52,51,53,54,53,53,53,54,55,55,54,53,54,52,52,52,52,52,52,52,51,50,50,50,50,51,51,52,54,57,56,55,54,54,54,56,57,55,55,57,57,58,60,60,58,59,57,56,55,55,55,53,53,52,51,50,50,49,48,49,48,49,50,50,50,51,51,52,53,55,55,55,54,54,53,53,52,51,51,51,51,51,50,50,50,49,49,48,49,50,52,51,50,48,48,48,49,52,53,53,54,58,58,57,57,55,56,54,54,55,56,55,54,53,53,54,52,53,53,53,52,51,50,51,51,50,50,49,48,47,47,47,48,47,46,47,46,45,44,43,44,43,43,42,42,43,44,43,43,43,45,46,45,45,44,44,44,44,44,43,43,42,42,42,41,40,41,43,49,53,53,53,56,56,55,53,54,56,57,57,56,56,55,54,53,52,51,51,51,49,50,50,49,48,49,48,48,48,49,48,47,46,47,51,58,60,59,59,62,63,63,64,62,62,61,60,60,60,60,59,59,59,60,59,58,59,65,74,80,80,85,89,91,91,91,90,89,88,87,86,87,86,84,84,83,82,80,80,79,78,79,83,82,83,84,82,81,79,78,77,77,77,76,75,76,75,73,72,74,79,84,86,87,90,91,90,89,87,85,84,83,81,80,78,77,76,74,73,72,71,69,67,67,67,67,67,65,64,63,63,62,62,59,59,58,57,56,56,55,54,53,52,52,53,53,53,52,53,51,51,51,50,49,48,47,47,47,48,47,46,46,45,45,45,45,44,43,42,41,41,42,42,42,40,40,39,39,39,38,38,37,36,37,37,37,37,36,36,36,35,36,36,34,34,34,33,34,34,34,33,33,32,33,33,32,32,31,31,31,31,31,31,31,31,30,30,30,31,31,30,29,29,29,30,30,29,29,29,30,29,30,30,30,29,28,28,29,28,29,29,28,28,28,28,27,28,27,26,26,26,27,28,27,27,27,26,26,27,26,25,25,25,24,25,25,26,25,26,25,24,25,24,25,24,24,24,24,25,25,24,24,24,24,25,24,24,23,23,23,24,25,25,25,24,25,24,25,25,25,24,25,24,25,25,27,25,25,25,24,25,25,24,24,23,24,23,25,25,25,25,26,24,25,24,25,25,24,25,24,23,24,24,24,23,23,23,22,24,24,24,24,24,23,23,23,23,23,22,23,23,22,22,22,21,21,21,21,21,22,22,22,21,22,22,22,21,21,21,21,20,20,21,21,21,21,21,20,21,20,20,21,20,21,20,20,20,21,21,20,20,19,19,20,21,20,20,20,20,19,20,20,20,20,20,14,14,14,14,14,15
83,84,84,84,83,83,83,84,84,84,85,85,84,84,84,84,84,83,82,82,82,84,86,85,85,85,84,85,85,86,86,85,85,85,85,86,85,85,85,85,84,85,86,85,85,85,84,85,85,87,86,85,84,84,84,84,85,84,85,84,83,84,84,85,85,85,84,84,85,86,87,87,86,86,85,85,86,87,86,86,85,85,86,86,86,86,85,85,85,86,87,88,86,86,86,86,87,89,88,88,88,88,87,88,89,89,88,88,87,87,88,90,88,88,88,87,87,89,90,89,89,88,87,89,89,89,88,88,88,88,88,89,88,87,87,87,86,88,89,88,88,87,88,87,87,88,87,87,87,87,86,86,86,86,86,85,85,85,84,85,85,85,84,84,84,83,83,84,84,83,83,83,83,85,85,85,84,85,85,88,95,99,101,103,110,113,115,118,124,127,131,150,176,208,247,284,292,305,339,355,359,358,374,407,464,487,506,547,569,586,590,599,628,659,668,663,654,660,675,673,686,683,684,679,672,662,660,662,667,688,720,761,775,774,812,834,833,840,837,835,831,841,846,840,832,821,809,807,839,869,873,903,937,932,935,944,939,924,916,923,925,912,911,906,894,887,895,887,895,908,899,895,884,875,864,854,854,854,857,859,863,884,887,884,880,872,867,859,846,833,822,830,823,825,844,863,865,884,877,864,868,871,858,854,853,848,850,840,826,825,834,835,842,884,893,895,881,892,885,868,854,841,832,830,828,818,826,826,833,839,832,823,821,827,814,805,798,792,802,796,802,797,787,778,776,774,765,755,752,754,763,771,772,801,817,835,863,874,878,877,875,865,850,848,838,828,824,814,814,844,864,890,892,913,904,890,880,869,854,839,826,819,807,797,835,856,892,908,913,905,906,890,875,873,866,865,854,843,836,837,835,852,850,839,833,823,812,802,834,852,889,890,884,872,874,895,895,898,896,885,888,898,893,885,889,876,862,846,833,832,826,822,819,829,831,838,827,821,816,811,815,807,806,807,808,799,798,800,814,813,830,829,827,835,824,812,801,809,809,807,836,862,852,850,848,836,829,818,817,818,830,848,836,821,809,794,783,790,801,809,843,852,859,865,850,854,851,854,840,840,841,830,816,801,790,779,774,778,790,786,777,766,752,738,729,759,782,773,771,805,810,797,783,772,761,750,738,729,730,738,761,761,754,740,729,716,710,707,705,716,719,727,718,710,700,688,679,693,705,698,702,724,713,701,692,683,672,664,654,654,645,638,629,622,620,612,604,594,590,595,593,598,593,599,608,605,601,593,583,577,577,574,576,576,573,566,558,549,544,541,536,531,523,515,507,503,496,496,492,486,480,477,471,466,466,460,452,445,437,431,428,424,417,410,405,399,392,388,382,375,369,363,357,353,350,346,341,337,333,330,325,322,317,312,308,304,300,298,293,288,284,279,275,273,271,268,264,259,256,252,249,248,246,242,238,235,232,229,227,224,222,219,216,215,215,213,210,207,205,202,200,199,196,195,193,190,188,188,187,184,183,181,178,177,175,173,171,169,166,165,164,164,162,160,158,156,156,156,156,154,152,150,148,148,147,146,144,143,142,140,141,141,140,138,136,134,134,134,134,133,132,130,129,130,130,131,130,129,127,127,129,130,129,128,128,127,127,128,128,128,127,126,126,126,129,131,131,131,130,131,133,135,135,134,133,133,133,134,137,137,137,136,135,136,137,138,138,137,137,136,138,141,142,142,142,141,141,141,142,141,140,140,139,140,143,146,146,145,146,145,148,149,149,148,146,146,144,147,149,148,147,147,146,147,147,147,147,145,144,144,146,147,148,148,146,146,147,146,146,146,145,144,143,143,144,145,143,143,141,140,141,142,141,140,139,138,137,138,139,139,138,136,135,134,135,134,133,132,130,129,130,131,132,130,129,129,129,129,130,129,128,127,126,125,126,126,124,123,122,121,120,120,118,117,116,114,113,115,116,116,114,112,112,112,113,111,110,109,109,107,108,110,110,109,108,107,106,108,108,107,105,105,104,104,105,107,106,105,104,104,104,105,104,102,103,101,101,102,102,102,101,102,100,99,99,99,98,99,98,97,96,98,98,97,97,96,96,95,95,95,95,95,95,95,95,96,95,95,95,93,93,93,93,92,92,93,93,94,93,93,93,93,93,93,93,93,92,92,91,92,92,92,92,93,93,93,93,94,93,92,92,92,93,93,93,93,93,92,93,93,93,93,92,92,92,93,93,93,94,93,93,93,93,94,94,89,89,89,90,90,90
15,14,14,14,14,15,14,15,14,14,14,14,14,14,14,14,14,14,14,14,14,14,15,14,15,14,14,14,15,15,15,15,15,15,14,14,15,15,15,14,15,16,15,14,15,15,15,15,15,15,14,15,15,15,14,15,15,15,15,14,15,15,15,15,14,15,15,14,14,15,15,15,14,15,15,15,15,15,15,15,15,14,15,15,15,16,15,14,15,15,15,14,15,14,15,14,15,14,15,14,15,14,15,15,15,14,14,14,14,15,14,15,14,14,14,14,15,15,15,14,14,14,15,14,15,14,14,14,14,14,14,14,14,14,14,14,15,14,14,14,14,14,15,14,14,14,14,14,14,14,14,14,14,14,14,14,14,14,14,14,14,14,14,14,15,14,14,15,14,14,14,14,14,14,15,14,14,14,14,15,14,14,14,14,14,13,14,14,14,14,13,14,14,14,15,14,14,14,14,14,14,14,14,14,14,14,15,14,14,14,14,15,14,14,14,14,14,14,14,14,15,14,14,14,15,15,14,14,14,15,14,14,14,14,15,14,14,14,14,15,15,14,15,15,15,16,18,19,17,18,17,18,18,19,21,20,21,24,24,24,25,24,24,26,27,28,29,31,33,36,40,44,44,43,43,43,43,42,41,40,41,40,40,41,42,42,41,41,42,46,49,48,48,48,46,46,46,46,46,49,52,53,51,51,50,49,49,51,50,51,49,50,51,51,50,50,51,52,52,50,51,50,50,51,53,54,55,54,54,54,53,53,52,52,52,52,52,55,55,55,55,54,52,52,52,53,52,51,51,51,49,48,47,48,46,46,47,47,47,48,47,47,46,45,46,44,43,44,43,45,45,44,44,44,43,44,43,44,45,44,43,42,42,42,43,43,43,44,43,45,45,48,50,49,49,49,48,49,47,47,47,46,45,44,44,45,45,44,43,43,42,42,41,41,41,41,43,44,43,43,44,44,45,45,45,44,44,43,43,44,45,46,45,44,44,44,45,46,45,44,44,44,43,43,44,44,44,43,43,44,44,43,42,42,42,42,42,41,41,41,41,42,42,41,41,41,39,39,39,38,38,37,37,37,37,36,36,36,35,35,35,35,35,35,35,36,36,36,36,37,36,36,35,35,36,36,36,35,36,37,37,36,37,38,38,37,36,37,37,37,37,36,37,37,37,37,37,37,36,36,35,35,35,35,35,36,37,38,37,37,36,36,35,34,34,35,35,36,37,37,38,37,37,37,36,37,36,35,35,35,35,35,33,34,34,34,34,34,34,35,35,35,34,34,34,33,32,33,35,35,35,34,35,34,35,35,34,34,33,33,33,35,36,37,40,41,43,43,42,41,41,41,40,39,39,39,38,38,39,39,39,38,38,37,37,38,36,36,36,35,35,34,34,33,33,33,33,32,32,32,32,31,31,30,30,30,30,30,31,31,30,29,29,29,28,29,29,29,29,29,28,29,29,29,29,30,29,29,30,30,29,29,29,29,29,30,30,30,29,28,29,29,29,30,32,35,34,34,34,38,38,38,37,38,38,37,36,36,35,36,34,34,35,34,33,34,32,32,33,34,34,33,34,33,33,33,34,36,37,38,38,37,38,37,37,36,35,35,35,36,35,34,34,34,34,35,35,35,35,34,34,34,33,33,32,31,31,32,32,32,32,32,32,32,31,32,31,31,30,30,30,30,30,30,30,29,29,29,29,29,30,29,28,28,28,28,27,27,28,27,27,27,27,26,26,26,26,25,26,26,26,25,25,25,25,26,26,26,25,26,27,29,31,32,35,37,37,37,37,36,36,36,38,39,41,42,42,43,45,50,54,55,55,57,56,56,55,55,55,54,52,53,52,52,55,56,58,63,64,65,67,67,66,66,65,63,62,62,60,59,58,59,58,57,56,57,58,58,57,55,57,61,69,81,86,85,86,91,92,90,90,89,87,86,85,83,82,80,79,77,76,75,74,74,73,71,71,71,69,71,73,74,75,76,75,75,74,73,71,70,69,68,67,66,65,65,64,63,62,63,61,61,61,61,61,62,62,61,60,59,58,58,58,57,57,55,55,54,53,51,52,51,49,51,54,58,59,61,64,65,63,63,62,61,60,60,58,58,57,57,56,54,54,53,52,51,50,49,49,48,47,48,48,48,48,47,46,48,50,54,55,57,57,58,56,55,54,54,53,52,51,50,50,50,50,48,48,47,46,47,46,45,45,44,43,43,43,43,42,41,40,41,40,40,39,39,38,38,37,37,36,36,36,14,15,15,15,15,15,14,14
91,90,90,90,89,89,89,88,88,89,89,89,89,89,90,90,90,89,89,89,89,89,89,89,88,89,89,90,90,91,90,91,90,90,89,90,90,91,91,91,91,92,92,92,92,92,92,91,91,90,92,91,92,91,92,92,92,92,92,92,92,92,91,91,91,91,91,91,91,92,92,92,91,91,91,90,90,91,91,91,92,91,91,92,92,93,93,92,92,92,92,91,92,92,92,92,92,91,92,91,91,91,90,91,90,90,91,91,91,90,90,90,90,90,90,90,89,89,89,89,89,89,89,90,90,89,90,89,89,89,89,89,89,89,89,89,89,90,90,90,90,90,89,89,89,88,88,89,88,88,89,89,89,89,89,89,90,88,89,89,89,89,89,89,90,89,89,90,90,89,89,89,89,89,88,88,88,89,89,89,89,89,89,89,88,88,88,88,89,88,88,88,88,88,89,88,88,88,88,89,88,88,88,88,88,88,89,89,89,90,90,89,88,90,89,89,90,91,90,90,91,91,90,90,90,90,89,89,89,90,91,90,91,90,91,98,112,121,125,127,134,136,143,158,177,188,199,209,238,243,256,275,277,320,397,408,436,446,468,476,488,533,567,579,607,634,635,643,655,684,683,717,754,754,771,799,808,802,792,781,782,794,795,788,777,764,767,762,775,798,797,814,824,825,818,807,796,784,779,773,776,813,815,816,818,833,830,819,808,811,826,827,829,835,840,851,852,837,821,815,813,813,854,864,861,865,856,846,838,834,828,814,812,806,800,802,798,797,784,792,806,800,823,864,877,880,887,876,869,867,868,858,852,854,842,851,844,831,829,833,833,822,818,814,808,796,792,791,795,815,857,857,898,892,877,869,873,865,866,872,870,877,898,898,903,905,916,917,926,921,912,903,904,898,899,898,882,892,892,913,913,918,906,897,895,881,873,866,859,854,845,837,826,833,861,860,849,857,855,850,854,844,840,825,830,850,870,867,893,899,903,890,880,884,911,926,930,953,943,931,929,924,914,901,896,889,887,896,889,899,892,899,905,936,947,959,948,936,942,965,974,982,982,982,981,982,981,981,971,973,982,981,981,982,983,970,955,944,957,945,947,951,937,922,906,900,906,920,942,931,919,909,900,907,942,944,940,941,938,946,933,919,911,897,893,885,891,878,868,878,922,938,950,982,968,958,946,937,922,916,917,904,891,880,870,865,870,865,869,862,851,845,844,849,846,835,826,822,815,805,793,786,782,777,790,786,783,799,808,806,803,793,794,786,795,802,798,791,795,785,783,769,756,747,740,739,733,736,744,752,778,807,805,841,862,859,843,828,817,803,789,794,780,792,791,777,766,753,752,752,741,729,716,704,698,731,749,782,790,789,782,776,767,764,766,759,759,749,740,738,732,722,724,723,745,752,752,747,738,738,728,745,744,753,747,748,745,778,772,761,749,735,721,710,722,721,732,750,752,740,727,721,740,758,754,778,782,772,767,758,747,734,732,746,751,789,809,803,801,790,786,811,814,840,839,828,813,800,805,804,807,805,816,811,809,801,790,779,768,762,774,769,781,780,778,768,755,744,737,732,740,732,721,710,704,715,754,769,809,814,801,792,782,779,770,760,750,738,726,719,710,700,696,689,691,708,725,752,762,756,748,740,737,726,712,707,701,716,716,711,712,727,721,710,698,690,680,671,663,653,658,658,659,664,653,641,630,620,613,632,640,634,626,624,612,601,591,584,579,579,595,594,591,585,576,568,568,561,557,553,544,535,526,518,509,505,504,503,500,492,485,481,478,470,462,454,448,443,437,430,423,416,409,402,396,391,389,383,377,371,365,362,359,353,347,342,337,332,328,323,319,313,309,305,300,295,291,288,283,279,276,272,268,266,262,258,255,252,249,246,242,240,237,234,231,229,226,224,220,218,215,212,209,208,205,203,201,199,196,195,192,190,189,187,185,182,180,179,177,176,174,173,172,169,169,167,166,163,162,161,159,158,157,155,154,153,152,150,150,149,148,146,145,144,143,142,141,140,139,138,137,136,135,133,133,132,130,130,129,128,127,127,128,126,126,125,124,122,121,121,120,119,117,116,115,116,117,116,114,114,114,112,112,110,111,110,109,108,109,110,109,108,107,107,105,106,104,103,103,102,101,101,103,104,102,101,101,100,100,102,100,100,99,99,98,98,99,98,97,96,96,97,96,97,96,95,94,93,93,95,96,97,97,96,95,96,96,96,95,96,95,94,94,96,95,94,94,93,92,92,93,92,91,81,81,80,81,81,80,80,81
14,15,14,15,14,14,14,15,15,15,15,15,15,15,15,15,15,15,14,14,15,14,15,15,15,14,15,16,15,14,14,15,14,14,15,15,14,14,14,14,14,14,14,14,15,14,14,14,15,15,15,14,15,14,14,14,14,15,14,15,14,14,14,15,14,15,15,14,14,15,15,15,14,15,14,15,14,14,14,14,14,15,14,14,14,14,14,14,14,14,15,14,14,14,15,15,14,14,14,15,14,14,14,14,14,15,14,14,14,14,14,14,14,14,14,13,14,14,14,14,14,14,14,15,15,14,14,15,14,14,14,15,14,14,15,15,15,15,15,14,15,14,15,15,14,15,14,15,14,14,14,14,15,15,14,13,14,13,14,14,14,13,13,14,14,14,14,13,13,14,13,13,13,14,14,14,13,13,13,13,13,13,14,13,13,14,13,14,14,14,14,15,14,14,14,14,14,14,14,15,14,14,14,14,14,14,14,14,14,14,14,14,15,15,15,14,14,15,15,14,14,14,14,14,14,14,14,14,14,14,14,15,15,14,15,15,14,14,14,14,14,15,14,15,14,14,15,15,15,15,15,14,14,15,15,15,14,14,15,14,14,15,14,15,15,15,15,14,15,16,15,15,15,16,15,15,15,15,15,14,15,14,15,15,15,14,15,15,15,16,15,14,15,15,15,15,15,15,15,15,15,16,15,15,15,14,14,14,15,15,15,16,14,15,14,15,15,14,15,14,14,14,14,14,15,15,14,15,15,14,15,15,14,15,14,14,14,14,14,15,14,14,14,14,15,15,15,14,14,14,14,15,14,14,14,14,14,14,14,14,15,14,14,14,14,15,15,15,15,15,15,15,15,15,15,14,14,16,15,16,15,15,15,16,16,18,18,17,17,19,19,19,18,19,18,18,18,18,18,18,19,18,18,19,19,19,19,20,20,20,21,22,22,21,22,23,22,23,23,23,23,23,23,23,23,23,23,24,25,25,26,26,26,26,26,27,27,26,26,26,26,27,27,26,26,28,28,28,29,28,29,29,29,29,28,28,29,29,28,29,28,28,29,31,33,32,32,32,32,31,31,32,34,34,34,34,34,34,33,33,32,32,33,35,34,34,35,34,34,34,33,33,32,33,32,32,32,33,33,33,35,36,36,35,35,34,34,34,34,33,33,33,33,34,35,36,36,36,35,36,36,37,39,40,39,39,38,39,39,38,39,40,40,39,38,37,38,38,39,41,42,41,41,40,39,40,40,40,40,40,39,39,38,38,37,36,36,37,36,36,37,37,36,36,35,35,36,35,34,34,33,33,33,33,33,32,32,32,32,31,31,31,31,33,32,32,32,31,33,32,32,32,32,31,31,31,31,30,30,31,30,30,31,31,31,31,30,30,29,29,30,30,30,29,30,30,31,31,31,30,31,30,29,29,29,29,29,28,28,29,29,30,29,28,27,27,28,27,28,28,27,29,29,28,28,29,29,28,28,28,28,28,28,28,27,26,26,26,26,25,25,25,25,24,24,24,26,29,31,30,30,31,32,33,32,33,32,33,32,32,31,31,32,31,32,31,31,31,30,30,30,29,29,28,28,28,29,28,28,27,27,27,27,27,28,31,32,32,31,31,32,31,30,31,31,30,31,30,31,32,30,31,29,29,29,29,30,31,30,30,30,30,31,32,32,32,31,31,31,31,31,31,30,30,30,30,31,33,33,33,35,35,34,34,34,34,32,33,32,32,32,32,31,31,31,31,31,31,30,30,31,31,31,32,31,30,30,30,30,31,30,30,31,31,30,30,31,32,31,31,31,30,32,32,31,31,30,30,30,30,29,29,29,30,29,29,30,29,29,29,29,28,29,29,29,29,29,28,29,28,27,28,28,28,27,27,28,26,26,26,26,26,26,26,26,25,25,25,25,24,25,25,24,24,23,24,24,23,23,23,24,24,24,24,24,24,23,23,22,23,23,23,23,21,21,23,24,25,25,25,25,25,25,27,27,28,29,29,31,32,33,35,34,34,34,34,34,33,34,33,34,35,34,34,35,38,42,42,41,43,45,44,44,43,46,49,51,50,55,63,67,66,67,67,68,66,66,70,73,73,72,71,70,69,69,68,68,67,67,69,70,68,67,66,65,64,66,68,66,68,72,73,76,75,73,72,71,72,70,69,68,66,65,65,64,63,62,60,60,60,60,60,60,59,58,59,58,58,56,57,57,58,57,56,56,55,56,58,61,61,59,59,61,61,60,60,59,57,57,58,58,16,17,17,17,17,17,18,17,16,17
80,80,80,79,79,80,81,85,84,84,83,83,83,84,83,83,82,82,82,83,83,83,83,83,82,82,82,82,83,82,81,81,80,81,84,83,83,82,83,83,82,82,81,80,81,80,80,82,83,83,83,82,82,82,82,82,82,81,81,81,80,82,84,82,82,82,82,81,82,82,81,81,81,80,80,82,82,82,82,81,81,82,82,81,81,81,80,81,81,83,82,82,82,81,80,81,81,80,80,79,80,80,81,83,82,82,82,81,81,81,81,81,80,80,80,80,81,83,83,82,82,81,83,83,82,82,82,82,81,82,83,83,83,82,82,82,81,82,83,82,81,81,80,80,82,82,81,81,80,80,80,81,80,80,80,79,79,79,80,82,81,80,80,81,81,80,80,80,80,79,79,80,80,80,80,79,80,79,80,79,79,78,78,78,78,80,80,80,80,79,79,79,80,79,80,79,78,78,78,80,79,79,80,79,79,81,81,81,80,79,80,79,80,82,81,81,80,81,81,80,79,79,79,79,79,78,80,80,80,79,80,79,81,82,82,82,81,81,80,81,81,83,82,82,81,80,82,82,82,83,81,81,81,82,83,83,82,82,82,81,81,82,82,82,81,81,81,83,84,85,84,84,82,82,83,83,83,83,82,81,81,82,84,83,83,82,83,83,82,83,83,82,81,81,81,83,83,82,82,81,81,82,83,83,83,82,82,82,83,85,84,84,83,82,83,82,82,82,82,81,81,81,82,83,83,83,82,81,82,81,82,82,81,80,80,80,81,83,82,82,81,81,82,83,82,82,82,81,82,82,82,82,83,82,82,82,83,85,90,90,88,90,92,97,99,110,125,130,135,148,162,165,172,172,170,174,188,192,201,226,242,248,274,335,379,402,449,476,472,473,466,459,457,465,460,464,463,459,461,456,450,444,454,479,488,492,498,514,529,536,531,544,553,549,548,550,586,589,609,628,648,665,657,655,651,680,678,675,675,674,667,661,656,650,643,639,630,622,629,621,617,616,630,625,620,639,679,701,705,739,748,736,731,728,722,712,715,721,722,713,708,713,732,755,782,783,804,820,817,811,800,803,796,800,788,789,782,770,762,750,743,742,737,733,751,755,747,741,740,735,725,729,735,741,757,761,751,742,735,763,792,792,787,782,791,784,769,784,846,870,929,930,917,900,889,906,912,904,894,919,925,950,962,947,943,940,930,920,913,918,917,915,910,910,894,879,899,919,922,921,913,897,882,880,873,882,891,887,877,901,904,891,876,865,855,877,874,876,885,919,922,909,894,880,865,856,843,839,849,839,862,858,850,842,842,839,832,837,830,819,809,800,792,796,805,825,849,842,848,859,856,848,854,856,864,861,855,857,853,860,866,877,884,875,865,855,844,848,868,858,865,861,863,868,859,846,838,843,837,832,832,821,819,808,795,782,772,760,750,750,754,752,743,734,724,718,718,714,725,742,736,745,739,730,720,714,709,699,689,683,684,696,692,683,676,680,677,673,672,674,668,667,658,654,643,637,653,662,679,672,681,706,724,746,741,733,723,721,709,713,705,695,685,685,698,705,711,701,691,687,679,675,703,714,736,743,740,738,736,726,712,700,689,686,698,734,768,803,809,798,788,775,787,798,819,823,829,859,849,836,822,808,796,787,774,767,770,759,747,739,739,730,719,715,720,729,743,762,750,741,752,744,740,740,738,731,724,712,708,708,751,768,786,786,777,767,764,773,771,771,779,771,758,747,736,727,718,705,693,685,686,688,682,672,667,656,645,638,631,626,627,621,627,626,634,638,638,628,618,610,604,599,594,598,596,598,595,608,606,608,617,607,598,587,577,568,566,574,582,592,583,578,580,590,640,641,633,633,623,613,612,605,595,602,607,600,594,584,579,573,566,558,552,548,545,540,534,527,526,519,516,509,509,507,501,496,493,496,491,485,478,473,468,464,462,455,448,441,439,437,439,437,433,428,421,415,409,405,398,393,387,382,380,378,372,368,362,356,352,349,345,339,334,329,325,320,316,312,307,309,304,301,297,295,292,291,288,286,281,279,275,271,267,263,259,256,254,250,246,242,238,236,234,234,231,227,224,221,218,216,214,211,208,206,203,200,200,197,195,192,189,187,185,184,182,180,180,178,177,176,177,176,174,172,170,168,166,164,162,161,160,159,159,157,155,155,153,151,151,148,147,145,144,144,142,141,142,140,139,138,138,135,134,133,132,131,130,130,130,128,128,127,126,126,124,124,122,121,121,119,119,80,80,80,79,80,81,81,80,80,79
16,17,16,17,17,17,17,17,17,17,18,18,18,18,18,17,18,17,18,17,18,17,17,17,18,17,18,18,17,17,18,17,18,17,17,17,18,17,17,18,17,17,17,17,17,17,17,18,17,17,18,17,18,17,17,17,18,17,17,17,18,17,17,17,17,17,17,17,17,18,18,17,17,17,18,17,17,17,17,17,17,18,18,18,17,18,18,18,18,19,19,18,18,18,19,18,18,18,19,19,18,18,18,18,18,18,18,18,18,18,18,18,18,18,18,18,18,18,18,18,18,18,18,18,18,18,18,18,18,19,18,19,18,17,18,18,19,18,18,18,18,19,18,18,19,18,18,19,19,18,19,19,19,19,19,19,19,19,19,19,18,18,19,18,19,19,19,18,18,18,19,18,18,18,18,19,19,18,18,19,18,18,19,18,18,18,18,18,18,18,18,18,19,18,18,18,17,18,17,18,17,18,17,17,18,17,17,17,17,17,17,17,17,16,16,17,17,17,17,17,17,17,18,18,19,18,19,18,19,18,19,18,19,19,18,19,18,19,19,20,20,20,20,19,19,19,19,19,19,19,19,19,20,19,19,20,20,20,20,19,19,19,19,19,20,21,20,20,22,22,22,22,22,22,23,23,23,24,26,26,28,28,28,27,27,27,28,28,29,29,30,30,29,29,29,29,28,30,30,31,30,31,30,31,32,33,34,36,37,37,37,36,36,36,37,36,37,36,36,36,36,36,37,37,38,36,36,37,38,39,39,38,38,38,38,37,37,37,38,37,37,37,38,37,37,37,37,39,41,41,40,40,40,39,40,40,39,39,38,38,38,39,38,38,39,39,39,40,40,39,39,39,39,38,37,38,37,36,36,36,35,35,35,36,37,37,37,37,36,36,35,35,35,37,39,39,38,38,38,38,38,38,38,38,38,38,38,39,40,40,40,41,42,42,43,42,43,43,43,44,43,43,42,42,43,42,41,42,42,42,43,45,45,45,44,43,43,44,45,43,44,44,43,43,45,44,44,44,45,45,46,45,45,44,46,46,46,47,48,50,51,50,50,50,49,48,47,48,47,49,48,48,47,46,46,46,45,44,43,43,44,44,44,43,43,42,42,42,41,41,40,41,40,40,40,39,38,37,37,38,38,37,38,38,39,40,39,38,38,38,38,38,38,38,38,39,40,40,42,44,43,43,42,42,42,41,41,41,40,40,39,40,39,39,39,39,38,38,39,38,37,38,36,37,38,38,38,38,37,38,39,38,38,39,39,39,39,39,38,38,38,38,39,38,37,38,37,37,38,38,37,36,38,38,38,39,39,40,40,40,39,38,39,38,37,38,38,38,38,36,37,36,36,36,36,36,36,36,35,35,34,35,34,34,33,34,33,33,33,32,33,33,33,33,35,35,35,36,35,35,35,35,35,34,35,36,34,34,34,34,33,33,34,32,32,32,32,34,35,35,36,37,39,38,37,38,37,38,36,36,36,36,35,34,34,34,35,34,35,35,35,34,34,34,34,34,34,33,34,32,33,33,32,32,33,33,33,33,32,32,32,32,32,31,31,31,32,32,31,31,31,32,31,31,31,31,31,30,31,31,31,30,30,30,29,29,29,30,30,30,29,29,29,28,27,27,27,27,27,27,26,26,28,29,29,31,31,32,32,33,33,32,33,33,32,34,32,32,31,31,32,33,36,38,40,42,42,43,42,42,41,41,42,46,47,47,51,60,72,82,84,90,97,97,95,94,92,90,89,87,85,87,87,85,84,83,81,80,78,78,77,76,75,74,74,74,73,73,73,72,71,71,70,69,68,67,66,65,64,64,63,61,61,59,59,58,57,56,55,55,54,53,52,51,50,49,50,48,47,46,47,46,45,46,44,43,43,42,43,41,41,40,40,39,39,38,37,37,37,37,36,36,35,35,34,34,34,32,32,32,32,31,31,31,31,30,29,29,30,29,29,28,28,28,27,27,27,27,26,26,26,25,25,26,25,25,24,24,24,23,24,23,23,23,24,23,22,22,22,22,22,22,21,22,21,21,21,21,21,20,20,20,19,20,20,19,20,20,19,19,18,18,19,18,18,19,18,19,18,18,19,18,18,18,18,18,18,18,17,17,17,17,16,17,16,17,17,16,17,17,17,16,17,16,17,17,17,17,17,17,16,16,16,16,16,16,16,16,16,16,16,16,16,15,15,15,16,16,16,16,16,16,16,16,16,16,15,16,16,15,16,15,15,15,16,15,15,15,15,14,14,15,15,15,15,14,14,16,15,15,15
79,79,82,81,80,80,80,80,79,79,79,79,78,78,78,79,81,81,80,80,79,80,81,81,81,80,80,80,79,79,80,79,79,79,79,78,79,80,80,79,78,79,78,79,79,79,79,79,78,78,79,79,79,78,78,77,77,80,81,81,81,80,80,80,80,80,80,79,79,79,80,82,81,80,80,80,81,81,82,81,82,81,80,80,82,82,82,82,81,81,80,80,80,80,80,79,79,79,80,82,81,80,79,80,80,81,81,80,80,79,78,80,82,82,81,81,80,81,81,82,82,81,80,80,79,81,82,81,81,80,81,80,80,80,81,80,80,80,80,81,82,81,81,81,81,80,81,81,81,80,80,80,80,82,82,82,82,81,81,81,82,82,81,80,80,79,80,81,81,81,80,80,80,79,80,80,80,79,78,78,79,81,81,80,80,81,80,81,83,82,81,81,80,80,82,83,83,82,82,81,81,82,82,83,83,84,85,84,87,91,97,99,101,107,110,118,129,141,156,169,175,174,178,187,200,206,222,228,247,265,279,296,322,347,349,355,383,391,394,415,411,419,442,455,464,462,458,458,471,477,475,472,483,485,492,494,491,497,491,486,485,483,479,471,466,467,486,486,494,495,499,493,494,528,575,591,595,612,654,655,669,695,723,731,762,814,827,821,819,809,810,813,825,824,833,829,845,858,844,832,824,869,926,950,982,982,982,982,976,982,981,982,982,983,982,982,982,983,982,980,982,982,979,970,961,954,955,955,970,963,969,982,981,982,982,982,982,982,982,982,982,982,983,982,982,982,982,982,982,983,981,982,983,983,982,983,983,982,982,982,982,982,982,982,982,982,982,983,976,969,980,970,955,948,940,943,936,936,951,961,982,982,981,982,981,981,978,983,979,972,966,971,972,959,943,928,919,909,918,910,907,900,891,880,871,892,896,918,925,912,906,903,890,879,868,861,851,844,836,828,837,832,842,832,825,813,808,805,808,815,809,802,802,799,805,807,811,828,816,802,792,779,766,757,750,757,763,759,750,741,734,732,763,805,827,871,880,874,861,845,832,820,813,803,792,782,778,779,766,761,767,762,777,795,791,785,802,806,823,844,853,839,828,815,813,821,813,821,812,809,804,795,797,804,808,815,805,796,787,782,780,772,762,778,775,774,764,753,741,731,757,776,790,784,771,765,756,757,772,776,762,752,738,726,713,713,717,715,719,732,724,721,715,727,731,724,714,707,725,732,757,757,754,756,784,775,789,794,799,797,837,867,863,855,842,829,818,814,805,823,823,820,815,804,801,807,826,823,813,800,789,805,828,838,845,845,856,862,852,840,825,811,800,793,784,772,759,747,734,724,721,713,722,720,733,729,731,726,717,735,741,745,742,739,733,744,747,734,722,711,707,704,703,706,712,707,702,691,686,674,664,666,677,679,698,694,697,695,690,687,677,666,656,646,638,631,630,652,648,653,642,653,648,638,628,619,609,601,597,590,585,580,593,590,584,591,588,587,580,573,566,558,551,542,532,525,526,530,528,529,521,528,538,591,600,607,606,598,587,577,566,557,557,563,567,573,566,558,549,543,537,536,533,532,530,523,516,509,501,492,484,476,474,484,478,478,473,465,458,453,447,439,432,426,420,418,414,408,403,397,391,385,379,375,369,364,358,352,347,346,345,348,344,339,334,330,327,325,320,315,310,305,301,299,296,291,286,282,278,274,270,266,262,258,254,250,247,244,242,240,236,234,232,229,226,223,221,217,214,212,211,209,206,202,200,198,196,194,192,189,187,185,183,182,180,179,176,175,173,172,170,169,167,166,165,163,162,161,160,158,157,155,154,152,151,149,149,147,145,145,145,143,143,141,140,139,138,136,136,134,132,132,131,131,131,130,129,127,127,127,127,127,125,125,125,123,123,122,121,121,119,118,117,118,117,116,116,114,114,113,114,113,113,111,110,109,108,108,108,106,106,105,105,106,106,106,105,105,104,104,104,103,102,103,101,101,100,101,100,100,100,99,99,99,99,98,97,97,97,97,96,96,96,95,95,94,92,93,93,93,91,91,92,92,93,93,91,92,91,90,90,89,89,89,89,89,89,88,90,90,90,90,90,90,89,88,89,89,89,89,89,89,90,89,89,89,89,89,89,90,90,89,90,89,89,90,90,90,90,90,90,89,89,89,89,88,89,90,90,90,89,90,89,90,90,90,89,90,89,89,90,89,89,92,91,91,90,91,90,90,90,89,90,90,91,90,90,91,91,88,88,87,86,87,86,87,87,87,87,87,87
14,14,15,15,15,15,14,14,14,14,14,15,14,15,14,15,14,14,15,14,14,14,15,14,15,15,15,15,15,14,15,15,15,15,15,15,14,15,14,15,14,15,14,14,14,14,15,14,14,14,14,14,14,14,13,14,14,14,15,14,14,14,14,13,14,14,15,14,14,14,14,14,14,13,13,14,14,13,13,14,14,13,13,14,13,13,13,13,13,13,13,13,13,13,13,13,13,13,13,13,14,13,13,13,13,13,13,14,14,13,13,13,13,13,13,13,13,13,14,13,13,14,13,13,14,14,14,14,14,14,13,14,14,14,14,14,14,13,13,14,14,14,14,13,14,14,14,14,14,14,13,14,13,13,14,14,14,13,12,13,14,13,14,13,14,13,14,14,14,14,13,14,13,14,13,14,14,15,14,14,14,14,14,13,13,14,13,14,14,14,13,14,13,14,14,13,14,14,14,13,13,14,14,14,14,13,14,14,13,13,13,14,14,13,13,13,13,13,13,13,12,13,13,13,14,14,14,14,13,14,14,14,14,14,14,14,13,14,13,14,13,13,14,15,15,15,15,15,15,16,16,17,17,18,17,18,20,20,20,20,19,19,21,21,22,23,24,23,23,23,24,25,25,24,24,25,25,24,24,24,24,23,23,23,23,23,23,23,24,25,26,25,25,25,26,26,26,29,32,33,32,32,32,32,33,33,34,35,33,34,35,35,35,39,41,41,41,41,40,40,39,39,39,40,40,41,40,41,44,43,42,42,41,40,40,40,41,42,42,42,40,41,42,42,41,42,43,42,44,43,43,42,43,42,41,40,39,39,38,38,37,37,37,37,38,38,37,36,36,36,36,36,35,35,35,34,34,33,33,33,33,35,36,35,36,34,34,34,35,35,35,35,35,35,35,36,34,34,34,34,34,33,33,33,32,32,31,31,31,31,33,32,31,31,31,31,32,32,33,34,35,34,36,36,36,36,37,37,37,39,38,38,37,37,37,37,37,37,36,37,36,36,38,38,38,38,38,38,39,38,38,39,38,40,44,47,47,46,45,45,44,44,43,43,42,42,41,41,40,39,39,39,38,39,41,44,44,43,43,42,43,43,45,46,47,45,45,44,44,43,44,43,42,42,41,41,41,43,45,44,43,44,44,44,44,43,42,42,42,43,43,43,43,43,42,42,41,42,43,43,42,41,41,41,41,40,39,39,38,38,39,40,39,39,39,41,40,40,39,39,38,38,37,37,37,37,37,37,36,35,35,37,37,36,35,35,35,34,34,34,34,33,33,32,32,32,32,31,31,31,30,31,30,30,29,29,30,29,29,28,28,28,28,28,27,27,27,26,26,27,27,26,26,25,26,25,25,26,26,25,25,27,27,28,28,28,27,27,27,27,28,31,30,30,30,31,30,30,30,30,29,29,28,28,28,28,28,28,27,28,28,30,29,31,31,30,30,30,30,30,29,28,28,28,28,28,29,30,32,32,31,31,31,31,31,29,30,30,31,30,30,29,30,29,29,28,28,27,27,28,26,27,26,26,25,26,26,26,26,26,26,25,25,25,25,26,25,25,25,24,24,24,24,23,24,23,23,24,25,25,24,24,24,24,26,29,30,30,30,31,31,31,30,30,30,30,29,29,29,28,28,28,27,27,28,28,27,27,26,26,26,28,26,26,26,26,25,25,25,25,25,24,25,25,26,28,27,29,28,30,30,29,29,30,29,29,29,29,29,29,29,29,29,27,28,28,28,27,27,27,28,28,29,29,30,29,30,29,29,28,29,29,30,29,31,31,33,36,36,35,36,36,35,36,37,36,38,37,36,36,35,35,34,33,34,34,33,34,34,34,33,33,33,33,32,32,30,31,32,31,31,30,30,31,30,30,30,29,29,28,28,29,28,28,27,27,28,28,28,27,27,26,26,27,27,27,27,27,27,26,27,26,27,27,29,28,28,28,29,29,28,28,28,28,28,27,27,27,26,26,26,26,26,25,25,25,25,26,26,26,25,26,25,24,25,25,24,24,24,24,23,23,24,23,23,23,22,22,23,22,22,22,22,21,21,22,21,21,21,20,20,20,21,20,21,20,20,20,20,20,21,19,20,19,20,20,20,19,20,20,19,20,20,19,19,19,18,19,19,19,19,18,19,19,19,18,19,18,18,19,18,18,19,19,19,19,18,19,19,19,19,19,18,19,18,19,19,19,19,18,19,18,19,19,19,18,19,19,20,19,19,19,19,18,18,19,19,16,18,18,17,17,18,17,17,18,18,18,17,17,17
87,86,86,86,86,86,86,86,86,87,87,87,86,86,85,85,85,85,85,85,85,85,86,88,89,88,88,87,88,86,86,86,86,86,86,85,86,86,85,86,84,84,84,84,83,84,84,84,84,84,84,85,85,84,84,84,84,84,84,85,84,84,84,84,84,84,84,83,83,82,83,83,82,83,82,82,81,82,83,84,84,84,84,84,83,83,83,83,84,84,84,84,85,85,84,85,84,84,84,84,85,84,84,84,83,83,84,84,84,84,84,83,83,83,83,83,82,82,82,84,84,84,84,83,84,84,84,84,83,82,82,82,82,84,85,84,84,84,84,85,83,84,83,84,84,84,84,85,85,84,85,84,84,84,84,83,83,84,83,83,84,85,85,85,85,84,84,84,85,85,84,84,84,84,86,86,87,86,86,86,86,86,85,85,85,85,85,86,88,87,87,87,87,87,86,85,85,85,85,86,85,85,85,86,85,85,85,85,84,85,84,83,83,82,82,83,83,83,83,83,83,83,82,82,82,83,85,85,85,85,84,84,84,88,94,95,95,106,110,112,115,115,125,135,145,174,195,199,202,212,234,249,255,280,324,364,376,405,419,413,416,426,423,419,435,448,446,440,464,486,496,493,496,500,511,515,513,505,500,499,515,524,523,532,563,621,673,698,739,769,779,787,813,852,863,874,930,949,935,919,905,894,886,878,868,869,865,854,852,862,879,871,877,886,888,890,885,869,860,856,849,834,828,854,882,879,870,863,886,878,885,885,896,890,896,890,882,890,885,870,854,847,835,828,824,812,812,814,821,817,815,803,790,782,775,771,757,751,740,728,721,715,708,734,788,802,812,812,828,834,833,819,807,796,785,775,765,767,799,838,854,885,884,871,860,848,841,827,816,824,815,810,799,785,772,760,773,794,788,806,826,821,808,796,792,787,782,789,815,817,838,837,824,816,864,886,924,930,915,910,898,884,873,895,895,886,888,872,867,866,858,870,864,860,847,837,833,822,820,810,797,790,785,785,785,782,772,768,757,747,764,771,775,777,775,773,764,754,758,751,755,753,747,754,756,752,739,735,728,719,716,722,740,739,756,777,767,764,759,762,752,760,760,753,762,760,761,771,773,766,756,754,755,753,744,736,739,744,738,736,727,719,710,700,690,694,695,695,701,696,686,686,689,696,694,702,708,699,693,684,681,681,677,689,693,687,677,669,657,646,650,645,654,669,679,677,675,674,671,675,671,669,661,655,649,644,636,635,625,624,618,641,666,673,665,656,660,650,638,633,627,634,633,645,665,657,652,641,634,627,624,618,615,607,604,612,604,596,589,585,585,582,584,581,580,575,577,585,580,594,600,591,582,574,572,579,575,581,576,570,569,579,581,585,592,585,577,581,587,603,616,649,654,668,663,655,649,642,634,624,614,606,604,605,602,599,593,588,605,613,640,642,658,650,639,638,635,630,673,695,736,734,725,718,712,701,691,689,689,712,712,717,705,694,682,669,660,666,678,676,672,668,675,665,660,652,640,629,620,609,600,591,583,573,564,556,551,542,543,546,541,537,533,526,519,512,509,508,512,509,500,493,485,481,474,467,467,463,462,462,454,447,451,454,478,486,494,493,487,480,474,470,464,458,455,448,443,437,430,423,416,413,411,409,402,404,402,396,392,385,378,374,368,362,356,350,344,339,333,329,323,318,325,326,336,332,327,323,320,316,311,307,305,303,308,309,315,315,312,311,311,306,303,299,295,289,286,282,278,274,270,267,263,259,255,251,248,246,243,240,237,233,230,227,225,222,219,216,213,210,208,208,205,202,199,197,195,192,190,187,184,182,180,179,178,177,175,173,170,169,166,165,163,162,159,157,156,155,155,153,151,150,148,147,147,145,144,142,141,138,138,138,136,135,134,132,133,130,130,128,127,127,126,125,125,126,124,124,122,121,120,119,118,117,117,115,115,114,115,114,113,112,111,111,110,110,110,108,107,106,106,108,108,107,106,106,105,105,105,104,104,102,102,102,103,104,102,102,101,100,101,102,102,101,100,100,99,102,104,103,102,101,101,102,103,101,100,100,99,98,99,103,102,102,102,101,101,101,102,101,100,99,99,98,100,100,100,99,99,98,98,100,99,100,98,98,97,98,101,101,101,101,100,101,103,103,103,102,101,101,101,104,105,106,105,104,103,104,105,106,106,104,103,103,107,109,109,108,107,106,107,107,107,106,105,104,105,105,107,106,106,105,104,104,104,105,104,82,84,83,84,84,84,84,83,82,83,83,82,82,83
17,18,19,18,18,18,17,18,18,17,18,17,17,17,18,18,18,19,18,18,18,18,17,17,17,17,17,17,17,18,18,18,17,17,17,18,19,18,19,18,18,18,18,18,18,18,18,18,17,18,19,18,18,18,18,19,19,19,18,19,18,19,18,19,19,20,18,18,18,19,19,19,19,18,18,18,18,19,18,18,18,18,17,18,18,18,18,18,17,17,17,17,17,17,17,17,17,18,18,17,17,17,17,17,17,17,17,17,16,16,16,16,15,16,16,16,16,16,18,17,17,16,16,16,16,17,17,17,16,17,16,17,16,17,16,16,16,16,17,17,17,17,17,17,17,18,18,18,18,18,17,17,19,18,18,18,17,18,18,18,18,18,18,18,17,18,18,18,18,18,18,17,18,18,18,18,18,18,17,17,18,18,18,18,17,18,18,18,17,17,17,17,17,17,17,17,16,16,17,17,17,17,18,17,17,17,18,18,19,18,18,18,18,19,19,18,18,18,19,18,19,19,18,18,19,19,18,19,18,18,18,18,17,17,18,18,18,18,17,18,18,20,19,19,20,21,21,21,24,28,31,35,37,41,39,41,41,41,42,42,42,42,41,40,40,39,39,38,38,37,38,39,39,40,40,39,38,37,37,37,37,37,37,37,37,38,37,36,37,38,39,41,40,41,43,43,42,44,47,47,47,46,46,45,44,44,43,42,42,44,44,43,42,42,41,40,40,40,40,39,39,40,40,39,39,42,40,40,41,40,40,40,40,41,41,41,42,43,43,44,46,46,46,46,46,46,46,46,47,46,46,46,47,46,46,45,45,45,45,45,47,47,47,47,46,45,44,44,44,44,45,44,44,43,43,42,42,41,43,43,42,43,42,41,41,41,40,40,39,38,39,41,40,40,41,40,40,39,38,39,38,38,39,40,40,40,39,42,44,43,43,42,41,42,41,41,40,40,40,39,39,38,38,39,39,39,39,38,38,38,37,39,38,39,38,37,38,36,36,36,35,36,36,36,35,35,36,35,34,33,34,33,34,32,33,32,31,32,31,32,31,30,30,31,33,32,32,31,31,31,32,32,32,33,34,35,35,35,34,34,33,33,32,32,31,31,32,30,31,31,30,29,30,32,32,31,33,32,32,31,31,31,31,31,30,30,29,29,29,29,29,29,29,28,28,28,28,27,26,27,27,27,27,26,27,27,27,27,26,26,26,26,26,26,25,25,25,25,24,24,24,23,24,23,24,23,23,22,23,23,24,23,23,22,22,23,22,23,21,22,21,21,21,21,20,21,20,20,21,21,20,20,21,20,21,21,20,20,20,20,20,20,21,20,20,20,19,19,20,21,20,20,20,19,20,20,20,20,19,19,19,19,18,18,18,18,19,19,19,19,19,20,20,19,20,20,20,21,20,20,21,21,21,21,22,22,21,21,23,24,23,24,26,28,29,31,33,33,33,32,31,31,31,31,31,32,34,34,33,33,34,34,35,37,38,38,39,38,38,37,36,37,36,35,36,38,39,40,46,45,46,48,47,47,46,47,46,47,46,45,45,45,46,46,45,45,44,44,43,43,43,43,42,42,42,41,41,41,39,40,40,42,45,45,44,44,44,43,42,44,44,43,43,42,41,42,42,41,41,41,40,39,40,40,39,38,38,38,39,39,39,39,38,37,37,37,37,36,36,35,35,35,36,36,35,34,34,35,34,34,33,33,34,34,33,34,33,33,32,32,32,31,31,30,29,29,29,30,29,30,29,30,28,28,28,29,29,29,28,27,28,29,29,30,29,29,29,28,28,28,27,27,27,27,27,27,27,26,27,26,26,26,27,26,26,27,26,26,27,27,27,27,27,27,27,27,27,27,26,26,26,26,27,27,27,25,25,26,26,27,25,26,25,26,25,27,27,27,26,26,26,26,27,27,26,26,25,25,26,27,27,26,26,26,27,28,26,27,26,26,26,26,26,26,25,26,25,25,25,25,25,25,25,24,24,24,24,25,24,25,24,23,23,24,23,23,23,23,23,24,24,23,23,23,23,22,23,23,22,22,22,22,22,22,22,22,21,21,21,22,23,23,22,22,22,22,22,22,23,22,22,22,21,22,23,22,22,22,22,21,22,23,22,22,22,21,22,22,21,21,21,20,20,21,22,22,22,21,22,21,21,21,21,21,20,20,20,20,21,21,21,21,20,20,22,23,22,22,22,22,21,21,22,21,22,22,21,21,21,20,21,20,20,20,20,15,15,14,14,14,14,15,14,15,14,14,15,15,15,14,14
83,85,84,84,84,84,83,83,83,83,83,83,82,83,84,86,86,85,85,84,84,84,84,83,83,83,84,83,84,84,84,84,84,84,85,86,85,84,85,84,84,84,86,86,85,85,85,84,84,85,85,85,84,84,84,85,86,86,86,86,85,85,85,85,85,85,85,85,85,86,85,87,86,85,85,85,84,85,84,84,84,84,85,87,86,86,86,85,84,85,85,85,85,85,86,85,86,86,86,85,86,85,84,84,85,84,83,83,83,83,83,83,84,83,82,83,83,83,83,83,83,83,83,83,84,85,85,84,84,83,83,83,83,82,82,82,83,83,83,85,85,84,84,83,84,84,85,85,85,84,83,84,86,86,86,85,85,85,85,86,86,86,85,85,85,85,86,87,86,86,85,85,86,85,85,85,84,84,84,85,86,85,85,85,85,86,87,88,88,87,87,86,86,86,86,88,90,91,92,92,93,95,96,103,108,112,116,116,117,126,129,139,156,173,181,208,233,232,230,227,225,226,236,249,262,266,267,279,282,284,298,311,335,338,338,351,363,367,370,375,372,374,378,375,375,370,368,370,375,398,399,395,392,408,430,432,433,441,441,443,438,441,461,462,457,468,470,483,490,534,581,586,598,628,637,643,640,634,627,623,625,616,607,597,594,588,588,584,578,579,577,577,595,653,667,702,723,716,703,694,689,681,677,678,669,663,655,648,647,648,636,633,630,636,640,648,651,644,639,632,634,632,627,641,682,700,701,713,710,704,715,712,700,688,690,693,693,694,689,691,695,685,681,680,674,669,690,704,696,696,695,699,699,701,696,687,675,667,687,711,726,745,736,724,714,704,698,688,709,740,750,747,752,740,750,746,744,747,742,731,722,712,708,708,717,721,730,730,727,716,709,707,710,730,731,720,732,729,719,713,705,695,687,699,696,694,701,714,720,721,709,700,708,708,709,710,704,710,712,708,706,743,758,776,776,777,770,758,746,738,754,754,757,748,740,734,738,727,717,708,698,687,693,711,716,729,718,709,717,719,715,703,704,713,728,744,759,754,753,744,750,756,777,777,771,758,745,734,722,713,707,697,686,681,679,671,668,661,659,651,648,656,648,650,642,640,670,698,688,681,674,671,672,672,674,666,662,658,657,650,649,658,653,672,684,716,713,702,690,680,672,664,656,651,644,633,629,624,614,604,605,613,619,621,621,612,605,600,595,585,586,595,588,581,582,579,576,572,568,602,641,682,707,696,683,672,665,657,652,644,638,627,616,607,603,593,583,572,564,556,548,541,534,529,529,530,523,523,517,514,508,507,503,502,502,499,492,489,484,482,477,474,468,460,453,447,441,437,439,438,434,427,423,420,414,411,405,400,393,387,382,376,370,364,359,353,348,343,341,339,334,330,325,321,318,316,312,308,303,299,294,292,291,287,282,278,275,272,269,265,261,257,253,251,249,248,245,241,238,235,231,229,227,224,220,217,214,213,214,213,212,208,206,203,202,200,197,195,192,189,187,187,186,183,180,178,176,176,175,175,173,170,168,165,166,168,165,163,160,159,158,157,157,155,153,152,150,150,149,150,148,147,145,144,144,144,145,143,141,140,138,139,143,141,139,137,136,135,135,137,134,133,131,130,130,132,131,129,128,126,126,126,126,124,123,122,120,119,122,121,119,118,117,117,117,117,116,115,113,112,111,112,112,111,110,109,109,109,110,109,108,107,106,104,105,108,107,106,105,106,105,106,107,106,106,105,104,104,106,107,106,104,104,104,104,106,105,104,103,102,101,103,106,106,105,104,104,103,104,105,105,104,104,102,104,104,103,102,101,100,101,102,103,103,101,101,100,100,103,104,105,104,103,103,103,105,106,104,104,102,102,103,106,104,103,102,102,103,104,105,104,102,101,100,101,103,104,104,103,102,103,104,104,103,102,101,101,100,102,103,102,101,100,99,101,102,101,100,99,98,98,98,99,98,97,97,96,96,96,97,95,95,94,93,93,95,97,96,96,95,95,94,94,93,93,92,92,93,93,94,94,94,94,93,92,93,93,92,92,91,91,90,91,92,91,91,90,91,90,90,91,91,91,90,91,91,90,92,91,91,91,91,91,91,93,92,92,91,91,91,92,94,93,93,93,93,92,92,91,91,91,91,91,90,92,95,94,95,93,93,92,93,91,93,92,92,92,92,93,93,94,92,93,93,94,94,94,94,94,93,93,93,95,96,95,95,94,94,94,93,93,93,93,94,94,87,86,86,86,86,85,86,86,86,85,85,87,87,86,86,85
14,15,14,14,14,14,14,15,14,15,15,15,14,15,15,14,15,14,15,14,14,14,15,15,14,15,14,14,14,15,14,15,14,15,14,15,15,15,14,14,14,14,14,15,14,14,14,14,13,14,14,14,14,15,14,14,14,15,15,15,14,14,14,15,15,15,15,15,15,14,14,14,14,14,14,15,14,15,14,15,14,14,14,15,14,14,14,14,15,15,14,15,15,15,15,14,15,14,14,14,14,15,15,14,14,15,15,14,15,15,14,14,15,14,15,15,14,15,15,15,15,14,15,14,14,15,15,15,15,15,15,14,15,15,15,15,15,15,14,14,16,15,14,15,15,15,14,15,16,15,15,15,15,14,14,14,15,15,14,15,15,15,16,15,15,15,15,14,15,15,15,14,14,15,15,14,14,15,14,14,15,16,15,16,15,14,15,15,15,15,15,15,14,15,14,15,15,15,15,15,15,15,16,15,15,15,15,15,16,15,15,15,15,16,14,15,15,14,15,14,15,15,15,14,15,14,15,15,15,15,15,15,15,15,14,15,15,15,15,15,15,14,15,15,15,15,15,14,14,15,15,14,14,14,14,15,14,15,14,14,15,14,15,15,15,14,14,16,15,15,15,16,16,15,15,15,15,15,15,15,15,15,15,15,15,15,15,15,15,15,15,15,15,15,14,15,16,15,15,16,16,16,16,16,15,16,15,16,15,16,15,15,16,16,16,17,17,16,17,17,17,17,17,17,17,17,17,17,17,17,18,19,18,19,19,19,20,20,21,22,22,22,23,23,23,25,24,24,24,25,25,25,24,24,24,24,24,24,24,23,25,27,27,28,27,27,27,28,27,28,28,27,28,27,27,27,27,27,27,27,29,30,29,29,30,30,30,30,29,29,30,30,31,33,35,35,36,37,37,37,38,40,42,41,40,41,41,41,40,40,41,40,39,38,38,38,38,38,37,37,36,36,37,36,36,36,38,39,38,39,38,39,40,40,40,40,41,41,40,40,39,40,40,39,39,39,38,37,37,38,37,36,36,36,35,36,36,35,35,37,37,37,37,36,36,37,35,35,35,34,34,34,34,36,37,36,35,36,35,36,38,38,37,37,38,37,39,39,38,38,37,36,36,35,35,35,35,37,36,36,36,36,38,37,37,37,36,36,36,35,35,35,36,36,37,36,36,38,37,37,40,40,41,40,40,40,40,40,40,40,39,39,39,40,41,41,41,41,41,41,40,39,40,40,39,38,39,38,41,40,40,39,40,39,38,38,38,38,38,37,36,37,37,36,36,36,35,35,35,36,36,37,36,36,36,36,34,35,35,35,34,35,34,34,34,33,33,33,32,32,33,32,32,32,31,31,30,31,30,31,30,30,30,31,31,32,33,33,33,33,32,32,32,32,32,31,31,30,31,31,30,30,30,29,30,28,28,28,28,28,28,28,28,28,28,27,27,28,28,28,27,27,26,27,26,26,26,25,25,25,25,24,24,24,24,24,23,24,24,23,23,22,22,22,22,22,22,22,21,21,21,21,21,21,21,21,21,20,21,20,20,20,20,21,21,22,21,21,21,22,22,22,23,24,25,24,24,24,24,24,23,24,23,23,24,24,24,23,24,24,25,26,25,25,25,24,24,24,24,24,23,25,24,25,28,28,31,30,30,30,31,30,30,30,29,30,29,29,29,29,28,30,29,29,28,27,29,30,30,30,30,29,29,29,28,29,29,29,29,28,28,29,28,29,28,28,28,28,27,27,28,27,26,27,27,27,27,26,27,26,26,26,26,25,25,24,25,24,24,24,24,25,25,26,26,26,26,26,26,25,26,24,24,25,25,25,25,25,25,24,24,24,23,23,23,22,22,22,23,23,23,22,21,21,22,22,22,21,21,21,21,20,22,21,21,21,20,20,20,21,21,20,20,21,20,20,21,20,21,20,20,20,20,20,20,19,19,20,20,20,22,21,20,20,19,21,21,21,20,20,20,20,20,20,21,21,20,20,20,21,20,20,20,19,20,19,20,20,20,20,20,19,19,20,20,20,19,19,19,19,20,20,19,18,18,18,19,19,19,19,19,18,18,19,19,19,19,18,18,18,19,18,19,18,19,18,18,18,18,19,18,18,18,18,19,18,18,19,18,18,18,18,18,19,19,18,18,18,17,18,18,18,18,18,17,18,18,17,17,18,17,18,18,17,18,17,17,17,18,19,18,18,18,18,17,18,18,18,18,18,18,17,18,14,15,14,15,15,15,14,14,15,14,15,14,15,15,15,14,15,15
85,86,85,85,85,84,85,85,85,87,87,86,86,86,85,86,86,86,85,85,85,85,85,86,87,86,86,86,86,85,85,85,84,85,85,85,85,85,85,85,85,85,85,84,84,85,85,85,85,86,87,88,87,86,86,87,86,86,86,86,86,86,86,87,88,87,89,88,87,88,86,86,86,86,87,86,87,87,86,86,87,87,87,87,87,87,86,87,87,86,87,88,88,88,88,87,87,86,86,86,86,86,87,86,86,87,87,86,86,85,86,85,86,85,85,85,85,84,85,85,85,85,85,85,85,86,85,85,85,85,86,85,86,87,86,87,87,87,86,86,87,86,86,86,86,85,86,88,88,88,86,86,87,87,87,87,88,87,87,87,88,87,88,88,87,87,86,86,86,85,85,85,85,86,87,86,86,87,86,86,87,87,87,87,87,87,87,86,88,88,88,88,88,88,88,87,87,87,87,87,87,88,88,88,88,89,89,89,89,88,88,89,87,88,89,92,93,93,94,93,93,94,93,93,94,93,92,92,92,92,93,95,95,95,96,97,97,97,97,98,98,98,98,101,100,100,101,100,102,104,108,113,115,115,113,115,115,114,113,112,113,112,112,112,113,112,113,113,115,119,124,126,125,126,132,135,136,136,138,140,142,141,142,144,148,154,157,158,157,156,154,155,159,166,170,171,181,195,197,200,200,209,216,217,224,228,227,236,241,244,244,248,259,261,259,261,283,298,301,321,336,342,353,373,382,379,383,383,400,402,404,403,400,402,413,428,439,475,482,504,531,530,532,562,587,593,606,611,602,596,586,577,590,633,640,659,673,673,700,704,716,715,704,704,697,687,684,674,663,652,643,635,632,632,637,629,625,640,646,642,651,648,668,671,671,690,691,684,673,670,681,678,674,670,665,659,652,688,718,728,724,712,700,696,685,694,748,762,779,785,787,776,768,764,767,756,746,751,747,767,761,763,758,744,734,723,722,748,752,767,755,745,746,752,749,746,769,785,781,789,797,810,816,816,832,829,823,810,798,788,779,770,768,763,751,738,733,723,713,716,714,714,708,705,700,704,695,699,710,708,707,702,695,688,678,669,657,646,637,632,623,619,612,616,634,631,653,674,669,664,656,656,647,653,673,673,676,688,695,694,685,682,694,698,690,687,678,674,670,668,666,658,649,638,630,622,625,628,621,620,615,608,600,591,587,582,577,580,579,581,571,571,572,566,557,554,557,566,562,554,548,546,553,558,563,571,628,645,669,674,678,671,660,649,639,631,625,618,611,602,594,594,590,586,601,611,611,602,598,593,591,587,580,572,579,596,600,616,612,612,613,605,599,592,584,578,568,561,564,569,563,554,545,536,536,543,541,535,530,521,519,519,513,507,506,505,504,506,508,502,495,490,498,510,515,520,517,518,511,502,496,494,494,487,480,476,473,473,470,463,455,450,444,441,443,440,439,441,448,444,441,438,432,429,425,421,413,408,407,403,397,394,389,384,378,373,368,365,359,353,348,343,337,335,330,325,319,315,311,308,307,303,299,295,291,286,281,278,275,271,266,262,259,258,257,253,250,246,243,240,239,237,233,229,225,222,220,220,218,215,212,209,206,203,202,199,197,194,191,189,189,188,185,182,180,178,176,175,172,170,168,165,163,163,163,159,158,157,155,153,153,151,150,148,147,145,144,145,146,144,143,141,140,138,138,136,135,133,131,130,131,130,129,127,126,125,125,126,125,122,121,120,119,118,119,117,116,115,114,114,114,114,112,111,110,109,109,110,109,109,107,106,106,106,105,104,103,102,101,101,102,104,102,102,101,100,100,100,100,99,98,97,97,97,98,98,97,96,96,96,95,95,95,94,93,93,92,93,94,94,92,93,92,91,92,93,92,91,90,89,90,91,94,93,93,93,93,93,94,94,94,92,92,91,92,94,96,95,94,93,92,94,95,94,93,93,92,91,92,94,95,94,93,93,92,93,96,96,95,94,93,92,94,95,94,93,93,92,92,92,92,92,91,90,89,89,90,92,90,90,89,88,90,90,90,90,89,89,88,87,89,88,87,86,86,85,87,87,87,86,86,85,85,86,86,86,86,85,84,85,85,85,84,84,83,83,83,83,85,84,84,83,82,83,84,84,84,83,83,82,83,84,84,84,84,83,83,82,84,84,84,83,82,82,82,83,84,84,83,83,82,82,82,82,82,82,81,81,83,84,84,83,83,83,81,82,82,81,81,81,81,80,81,94,94,94,93,93,93,94,94,93,94,94,94,95,95,94,94,94,93
15,15,15,15,15,15,15,15,15,15,15,16,15,14,14,14,15,14,14,15,14,15,14,14,15,14,15,14,15,15,14,14,14,15,16,16,15,15,15,15,16,15,15,15,15,15,15,15,15,16,15,15,15,15,15,16,15,15,14,15,15,15,15,15,15,15,15,15,15,15,15,15,15,15,15,15,15,15,15,14,14,15,15,14,15,14,14,15,15,14,14,15,14,14,14,14,15,14,14,14,14,15,14,16,15,15,15,15,14,16,15,14,14,14,15,15,15,15,15,15,15,14,15,16,15,15,15,14,15,14,15,15,15,15,15,15,15,15,15,14,15,14,14,15,15,15,15,14,14,14,14,14,14,15,14,15,14,15,15,15,15,15,15,15,16,15,15,15,15,15,16,15,16,16,15,15,15,15,16,16,15,15,15,15,16,15,16,15,15,14,15,15,16,15,15,15,14,15,15,15,15,15,14,14,15,15,15,15,15,15,14,14,16,15,15,16,15,15,15,15,15,15,16,15,15,15,16,15,16,15,15,14,15,15,15,15,15,14,14,15,16,16,15,15,15,14,15,15,15,16,16,15,15,16,16,15,15,16,15,16,16,16,16,16,16,16,16,16,17,17,16,16,16,17,17,17,18,17,17,17,16,17,18,19,18,18,19,19,20,19,20,20,21,20,21,20,21,20,21,21,22,21,21,20,21,21,21,21,21,20,21,20,20,21,20,20,21,21,21,23,23,22,22,22,23,23,22,24,24,24,27,27,28,28,28,28,28,27,26,27,27,26,26,25,26,26,26,26,26,26,26,26,26,26,27,27,27,26,26,26,27,26,26,26,26,27,26,26,26,26,24,25,25,25,25,25,24,24,26,27,29,31,29,30,30,31,30,30,30,30,29,29,29,29,29,30,31,32,32,32,33,33,34,35,35,35,35,34,34,34,33,33,32,33,34,33,34,34,36,36,36,35,36,34,35,34,35,34,34,35,35,33,35,35,34,34,34,34,34,33,33,34,34,34,33,34,35,35,35,35,34,33,34,34,34,34,35,35,35,35,34,34,34,34,34,34,34,33,34,34,34,34,35,36,36,35,35,35,35,36,37,36,36,36,36,35,36,36,34,35,34,34,33,33,33,32,32,33,32,31,31,33,32,32,31,31,31,31,30,31,31,29,30,28,29,29,29,28,29,28,29,30,29,29,31,30,31,30,30,29,30,29,29,28,29,29,29,28,27,28,28,28,28,28,27,28,28,27,28,27,27,26,26,26,25,26,26,25,25,26,25,25,25,24,24,26,25,25,25,24,24,24,24,23,24,24,24,23,23,23,22,23,23,22,22,22,21,21,21,22,20,20,20,20,21,20,20,20,19,20,20,20,20,20,19,20,20,20,20,19,19,20,19,19,19,19,19,19,19,19,18,19,19,19,18,18,18,18,18,18,18,18,18,18,18,19,18,18,17,17,18,18,17,17,17,17,17,17,18,18,17,17,17,17,18,17,17,17,17,17,18,19,20,19,19,19,19,20,22,22,21,23,24,23,23,24,25,26,26,27,27,27,28,28,28,28,29,28,29,28,29,29,31,31,32,31,31,31,31,32,34,36,37,39,42,42,42,41,41,41,41,44,47,47,49,49,48,47,46,46,46,47,47,47,48,48,47,47,48,50,50,49,50,49,49,50,53,53,53,52,53,54,53,52,54,54,52,53,52,51,50,49,49,51,51,52,51,50,49,50,49,49,48,48,47,47,46,45,45,44,44,43,43,42,41,42,41,41,41,39,39,39,38,37,37,37,36,36,36,36,35,35,34,34,35,35,34,33,33,32,32,32,33,32,32,31,31,30,30,30,29,29,29,29,29,30,29,29,28,28,28,28,29,28,28,27,27,27,27,28,28,28,28,27,27,27,28,27,27,27,26,26,26,26,27,26,25,26,26,27,27,27,27,26,26,27,25,27,28,27,27,26,26,26,26,25,25,25,25,25,26,26,26,26,26,24,25,26,25,25,25,25,24,25,26,26,26,26,25,26,25,25,25,25,24,24,25,24,24,25,24,24,24,24,24,24,24,23,24,23,23,23,24,22,23,23,23,23,23,23,22,23,22,23,23,23,23,23,22,22,22,22,22,22,22,21,22,22,21,22,22,22,21,21,20,21,21,20,20,21,19,20,20,21,21,21,21,21,21,21,21,21,21,20,20,21,21,20,20,20,20,19,19,20,20,20,20,19,18,19,19,15,15,15,15,15,15,15,14,15,15,14,15,15,15,14,15,15,15,15,15
93,94,94,94,94,94,95,95,95,96,95,95,94,94,94,95,95,95,95,94,95,95,95,95,94,95,96,95,96,96,97,97,97,98,99,98,99,99,99,97,98,97,98,98,98,98,98,97,98,98,98,98,97,97,97,97,97,98,98,98,98,98,98,98,98,98,98,97,97,98,97,98,97,97,97,98,98,97,98,97,97,97,97,97,97,97,97,97,97,97,97,97,98,97,96,96,96,96,97,97,98,97,99,98,98,98,98,98,97,96,96,97,97,98,97,98,98,98,98,97,97,98,96,96,97,97,97,98,97,97,98,98,97,98,98,96,97,97,98,97,98,98,97,98,98,98,98,99,98,97,97,97,97,96,97,96,96,96,95,95,95,94,94,93,93,93,94,94,93,93,94,94,94,93,94,93,93,92,92,92,92,93,93,92,92,92,93,93,93,93,92,92,92,92,92,93,92,92,92,92,93,93,93,92,92,92,92,92,92,92,93,92,93,92,93,93,94,93,93,92,92,92,92,93,92,92,92,92,92,92,91,92,92,92,93,93,94,95,95,96,99,99,99,99,98,99,99,98,99,99,99,105,125,139,144,146,158,164,164,163,162,172,183,183,186,193,196,226,260,262,281,304,307,321,325,349,382,387,391,408,423,420,427,431,429,431,441,451,456,460,489,502,498,497,488,483,481,475,468,478,475,470,465,472,471,469,466,478,509,518,528,528,521,516,516,539,549,556,569,585,591,588,586,579,576,566,562,581,584,587,583,595,601,594,592,582,588,611,621,618,610,601,604,617,618,645,646,650,655,655,648,641,651,670,674,671,672,661,655,653,653,653,680,683,690,678,677,693,699,692,681,674,680,696,690,711,755,759,758,751,753,743,740,749,770,763,756,751,746,735,726,719,709,702,708,723,714,705,694,703,715,711,728,734,729,724,723,719,721,712,708,709,705,712,707,699,702,701,705,698,691,681,677,666,663,668,675,681,678,668,672,668,686,688,690,683,695,693,689,687,679,686,688,691,697,692,691,690,694,688,692,686,679,679,707,703,696,687,693,701,723,735,750,751,738,731,726,731,737,733,760,787,785,799,810,817,807,806,800,787,776,786,773,760,749,739,726,716,711,716,714,727,722,717,712,719,725,726,729,735,729,725,720,726,724,718,715,718,708,701,693,681,671,662,658,652,647,649,644,638,631,622,617,611,610,607,604,600,596,586,585,594,596,605,605,607,599,602,603,592,581,571,562,560,555,551,545,546,547,549,545,548,542,532,528,530,549,558,548,541,532,523,515,525,533,546,545,540,538,535,530,526,519,520,533,532,543,544,543,543,535,526,516,516,528,537,545,536,528,524,522,525,527,523,531,530,523,517,510,505,504,500,494,487,480,474,468,462,460,457,459,459,462,455,449,450,444,441,438,436,439,438,437,431,434,431,427,422,425,422,415,409,403,399,394,387,381,375,369,363,359,355,350,347,342,336,333,331,328,324,320,316,311,308,305,302,297,293,288,283,279,277,272,269,265,260,256,253,250,247,244,242,238,234,232,228,225,222,219,216,215,212,210,207,205,202,200,196,194,192,189,188,186,185,184,182,180,178,177,175,173,170,169,167,165,163,161,159,158,157,156,154,153,152,150,149,148,147,145,145,143,143,141,139,139,137,135,133,133,132,132,132,131,131,130,130,129,128,128,126,126,125,124,123,122,122,121,121,120,119,119,118,117,117,116,114,114,113,113,112,112,113,115,113,112,111,111,111,111,110,109,108,107,107,107,106,105,104,103,103,103,103,102,101,100,100,99,100,102,100,99,99,98,97,98,98,98,96,96,95,95,96,97,95,94,94,93,93,93,93,92,91,91,90,91,92,92,92,91,91,90,90,92,92,91,90,89,89,90,92,92,91,90,90,90,90,91,92,91,91,89,90,91,92,92,91,90,90,90,91,92,91,91,90,89,89,90,92,92,91,91,91,91,92,92,90,90,89,89,88,90,91,91,91,90,89,91,91,91,90,90,89,89,89,91,92,91,90,90,89,90,91,89,89,88,88,87,87,89,87,88,87,86,87,86,86,85,85,85,84,84,85,87,86,86,84,85,85,85,86,85,85,84,84,83,85,86,86,85,84,84,84,84,83,83,84,83,83,83,85,85,84,84,84,82,83,83,83,83,83,84,83,83,85,86,85,85,85,85,85,86,86,87,86,85,86,87,87,86,86,86,86,85,87,87,87,86,86,87,87,87,83,84,85,85,84,84,83,83,84,85,85,85,85,85,85,85,85,84,85,85
15,15,14,15,14,14,14,15,14,14,14,14,14,14,14,15,14,14,15,14,14,14,14,15,15,14,15,14,14,15,15,15,14,14,14,14,14,14,15,14,14,14,14,14,15,15,15,15,14,14,14,14,15,15,14,14,14,14,15,15,16,16,15,15,15,15,15,15,16,15,15,15,15,16,16,16,15,16,16,16,16,16,16,16,16,16,17,16,17,16,16,16,16,17,17,16,16,16,17,16,17,17,17,17,16,16,17,17,16,16,16,17,16,16,16,16,16,16,16,16,16,16,16,16,15,15,15,15,16,15,15,15,16,15,15,15,15,16,14,16,14,16,15,15,15,15,15,16,15,14,15,15,15,15,15,16,15,15,15,15,15,15,15,15,15,15,15,14,15,15,14,15,15,14,15,15,15,14,15,14,14,14,15,15,14,15,14,14,15,14,14,14,15,14,14,14,14,14,14,14,14,15,14,15,14,14,15,14,14,15,15,15,16,16,16,16,16,16,16,16,16,17,17,18,18,19,19,19,19,19,19,18,19,20,20,21,24,25,24,24,25,25,24,25,26,26,27,26,26,28,28,27,28,28,27,27,28,28,28,28,28,27,28,28,29,32,34,36,36,36,35,35,35,35,37,38,39,39,40,38,38,40,41,42,43,43,46,50,51,52,51,51,54,54,55,54,54,54,53,53,53,53,53,53,52,53,53,53,52,52,50,51,51,51,52,53,52,51,50,51,52,53,52,52,52,54,57,60,59,59,58,57,57,56,56,55,55,54,54,52,52,52,52,52,50,50,49,49,48,49,49,51,50,51,51,51,51,52,52,53,52,52,51,50,50,51,50,51,52,53,54,53,53,51,51,50,49,50,49,48,47,47,46,47,47,49,51,49,48,48,49,48,47,47,46,47,46,46,47,46,45,45,44,43,43,42,41,40,41,39,40,40,40,40,40,40,40,41,40,43,44,44,45,44,43,43,43,42,41,42,40,41,40,39,38,37,38,37,37,37,37,37,36,37,37,38,37,37,36,36,36,36,36,37,38,38,38,38,38,37,36,36,36,36,35,34,35,34,34,34,34,34,34,34,34,34,33,32,33,33,32,32,31,31,32,31,31,30,31,31,31,30,31,31,30,30,29,29,29,28,28,28,28,28,28,29,28,28,28,28,29,28,28,28,28,28,27,28,27,27,28,28,28,27,27,27,26,27,27,26,26,26,26,26,26,25,25,26,25,25,26,24,24,24,23,24,24,24,24,24,24,24,24,24,23,24,23,24,24,23,22,23,23,24,25,25,27,28,28,28,28,30,30,32,32,32,32,33,33,36,41,47,48,51,58,60,61,65,70,73,73,75,76,75,75,77,76,80,88,97,100,100,101,104,112,118,117,115,119,134,136,134,135,133,131,129,129,126,124,122,121,124,133,142,142,149,159,159,169,179,190,191,197,200,196,193,190,190,195,193,192,194,190,186,183,179,176,174,172,170,172,171,171,177,175,173,171,170,169,166,165,166,165,161,159,158,157,159,156,152,149,146,144,142,143,140,138,136,133,131,129,127,124,121,120,118,122,124,124,124,122,120,118,116,114,112,110,108,108,106,104,101,100,97,95,95,94,92,91,88,87,87,88,87,87,86,84,83,81,81,79,78,77,75,74,73,71,72,74,76,76,76,76,77,77,76,74,73,72,71,71,70,68,67,66,65,69,73,74,75,76,75,73,72,71,70,69,68,66,65,64,63,62,61,60,60,60,59,57,57,56,54,54,54,53,52,51,50,49,49,49,49,48,47,46,46,46,46,45,44,43,43,42,42,42,42,41,40,40,39,40,39,39,38,37,37,37,37,36,35,35,35,34,34,33,33,33,32,32,32,32,32,32,30,31,30,30,31,30,30,29,28,29,29,30,29,28,28,28,28,28,28,27,27,27,26,26,27,26,26,26,25,26,26,26,26,26,25,26,25,26,25,24,25,24,24,24,24,24,23,23,23,23,23,24,23,23,22,23,23,23,23,23,23,21,22,22,22,22,22,21,22,21,21,21,21,20,21,20,21,21,21,21,21,20,20,20,20,21,20,20,20,19,19,21,20,20,20,20,19,19,20,20,19,19,20,19,19,19,19,20,19,19,19,19,19,19,18,19,18,19,20,19,18,18,18,18,18,18,18,18,18,18,17,18,18,18,17,18,18,18,17,17,17,17,18,17,17,17,17,17,16,17,17,16,16,16,16,16,15,16,15,15,15,16,15,15,15,15,15,15,15,15,16,15,15,16,15,15,15,15
85,84,83,86,86,87,85,84,85,84,84,83,84,83,83,83,84,86,85,85,85,85,84,84,85,84,84,84,83,83,85,85,86,85,84,84,84,84,84,84,84,84,83,84,85,84,84,84,84,83,83,83,82,83,83,83,82,83,85,85,85,85,84,84,84,85,85,84,85,84,83,85,88,86,86,87,86,87,88,89,89,88,87,87,88,89,89,88,88,88,88,87,88,89,88,88,88,88,88,89,90,89,89,89,87,88,87,87,87,87,86,86,86,89,88,88,88,87,87,87,87,86,87,86,86,86,85,86,87,86,86,85,84,84,84,84,83,84,84,84,83,84,84,84,83,84,83,83,83,84,83,82,82,82,83,85,84,84,84,83,83,83,83,83,84,84,83,83,85,84,84,84,83,83,82,84,83,83,83,82,82,82,83,83,83,83,83,83,82,83,82,82,80,80,81,81,81,84,86,90,96,99,100,104,111,114,115,122,134,146,153,158,168,175,182,185,191,199,201,210,210,209,209,217,218,218,221,232,242,248,259,282,283,279,283,288,297,296,297,300,299,299,298,302,307,309,307,317,351,364,365,364,366,379,382,376,373,369,369,372,391,427,442,441,453,472,475,482,512,545,552,575,583,588,590,584,586,600,651,658,673,668,674,681,682,671,666,657,656,664,682,678,688,708,705,711,727,748,755,756,752,751,760,774,796,814,817,810,802,799,805,808,816,820,839,829,829,826,813,806,797,813,809,827,846,848,845,842,835,821,817,820,820,809,802,809,799,796,790,789,779,798,821,829,825,816,808,796,783,774,769,802,802,813,809,799,796,802,798,818,815,812,806,794,785,784,792,783,770,766,757,751,761,759,769,792,812,830,825,815,807,804,809,807,798,800,795,781,773,774,767,787,787,795,819,848,863,884,883,870,856,847,839,826,817,815,801,792,793,789,792,787,787,777,769,765,755,743,734,727,723,718,709,697,686,682,707,713,726,731,724,738,737,744,740,731,726,712,699,692,685,676,686,685,686,684,689,677,667,656,649,656,661,706,719,721,712,710,700,699,699,698,693,693,687,676,665,654,651,653,648,652,647,637,631,625,620,619,615,612,603,599,594,585,578,571,579,572,567,579,575,566,567,575,571,579,574,567,559,549,542,552,561,560,565,569,562,559,553,544,534,526,518,520,515,508,500,493,494,499,493,494,487,482,478,471,469,469,469,461,457,452,446,439,436,431,427,425,420,427,433,430,426,430,427,426,423,429,437,443,441,438,445,443,441,437,434,433,428,421,413,414,416,411,406,401,395,388,384,383,381,376,370,365,359,357,358,356,351,345,340,334,330,325,321,323,319,316,311,306,303,303,302,304,304,302,302,301,298,293,291,288,285,281,279,274,269,264,261,260,260,256,253,249,244,242,239,235,232,229,225,222,220,218,215,213,212,208,207,205,202,200,197,194,192,192,191,188,185,182,179,178,177,175,172,170,167,165,165,165,163,160,159,157,157,157,155,154,152,150,149,151,151,148,147,145,145,144,144,142,139,138,136,136,137,137,135,135,132,133,133,134,133,133,131,130,130,132,131,130,128,127,128,129,128,128,126,125,124,127,128,127,127,126,126,128,130,131,130,129,128,128,128,129,128,128,126,126,126,128,127,127,126,125,125,126,128,129,127,126,125,125,126,128,127,126,126,125,124,126,129,128,128,126,127,127,130,128,128,126,126,125,127,129,128,127,126,125,125,126,127,126,125,124,125,125,127,127,126,125,124,125,125,125,125,125,124,123,123,125,127,126,126,125,125,126,127,126,126,125,123,122,123,125,125,124,125,124,125,127,127,126,125,123,122,121,123,122,121,119,117,118,118,118,117,117,115,114,115,116,119,118,117,116,116,116,117,117,116,114,112,112,113,116,115,115,113,112,111,112,112,111,109,108,108,107,109,110,109,108,107,106,106,108,107,107,105,104,104,106,106,105,104,103,103,102,102,102,102,101,100,99,101,104,102,103,102,101,102,104,104,102,102,101,101,101,101,102,101,101,99,99,98,98,98,98,98,97,96,96,97,97,97,96,95,94,94,94,95,94,94,94,93,93,95,95,95,94,93,94,93,94,93,93,93,94,93,95,95,94,95,94,94,94,94,94,93,93,93,93,93,94,93,95,94,94,94,93,92,93,92,93,93,93,93,94,93,92,92,93,92,93,93,92,92,92,93,93,92,92,92,92,93,93,93,92,92,92,93,88,89,89,88,87,87,87,88,88,88,88,88,88,90,90,89,89,88,88,87,87,87
15,15,15,14,14,14,15,15,15,15,15,16,15,15,15,15,15,14,14,14,15,15,15,15,15,15,15,15,15,15,15,15,15,15,15,16,16,15,15,15,16,15,15,15,15,15,16,15,15,15,15,15,14,15,15,15,15,14,16,15,15,16,15,16,15,15,15,16,15,15,15,15,15,15,16,16,15,16,16,15,15,16,15,16,16,15,16,15,16,16,15,16,16,15,16,15,16,16,15,15,15,16,16,16,16,15,15,15,15,15,15,16,15,15,14,15,16,15,16,15,15,15,16,16,15,15,15,16,15,16,16,16,16,15,15,14,16,16,16,15,15,15,16,16,16,15,16,16,15,16,16,16,16,16,16,15,15,16,16,16,15,16,16,16,16,16,16,15,16,15,15,15,16,15,16,15,16,16,15,16,15,15,15,16,15,16,15,15,16,15,15,15,16,15,14,14,14,15,15,16,15,15,16,15,15,16,15,16,15,15,15,15,16,15,15,15,15,15,16,15,15,15,15,15,15,15,15,15,16,15,15,15,14,16,16,16,15,16,16,16,16,16,16,16,15,15,15,16,15,16,15,16,15,16,15,15,15,15,15,15,15,15,15,15,15,14,14,15,15,15,15,14,14,15,15,15,15,16,15,14,14,14,15,14,15,15,15,15,14,14,14,14,15,15,15,14,14,14,14,15,14,15,15,14,15,14,15,14,15,15,15,15,15,15,15,14,14,15,15,15,14,15,15,15,15,15,15,15,15,16,15,16,15,15,16,16,15,16,15,15,15,15,16,16,15,16,16,15,16,16,16,16,16,16,15,16,16,15,15,16,16,16,16,16,16,16,16,16,17,18,19,19,19,18,19,19,18,19,19,19,18,19,19,19,19,19,19,20,22,22,23,23,24,24,25,25,25,26,27,26,26,26,27,26,26,26,27,29,31,32,33,33,32,31,31,32,33,33,32,32,33,32,31,32,32,33,32,32,33,35,36,35,35,37,36,36,37,37,37,37,38,40,38,38,38,37,37,36,36,35,35,35,34,33,34,34,34,33,33,32,32,31,31,32,31,30,30,29,30,29,29,29,29,29,29,29,29,29,29,29,28,28,29,28,28,28,28,28,28,28,28,27,28,27,27,27,28,27,27,27,27,27,26,26,26,26,26,25,25,25,24,24,24,24,23,24,24,24,24,24,24,25,24,25,25,25,24,24,24,24,24,23,24,24,23,23,24,24,23,23,24,24,23,24,23,23,23,23,22,22,23,22,22,22,22,22,22,22,21,22,22,22,22,21,21,21,21,21,21,21,21,20,21,21,20,20,21,21,23,25,24,27,27,27,28,28,27,27,27,27,29,30,32,34,34,34,34,34,34,33,33,32,33,35,35,35,34,34,34,35,34,34,35,35,35,34,34,34,35,36,37,37,38,37,37,36,37,37,36,37,36,38,38,38,38,39,40,40,40,42,41,41,43,43,43,42,42,43,41,41,41,41,42,43,44,44,44,44,43,44,43,43,43,42,42,41,41,41,40,41,42,42,42,44,44,43,44,44,45,45,45,44,44,44,43,42,42,42,42,41,40,40,39,39,38,39,39,39,38,37,36,37,37,37,39,40,39,39,38,39,40,38,39,38,37,38,38,37,37,37,37,36,37,37,37,36,36,35,35,34,35,35,34,33,33,33,32,33,33,33,33,33,32,32,32,31,31,31,31,30,31,31,30,30,30,29,29,28,29,28,27,28,28,28,28,28,26,27,26,27,27,27,26,26,25,26,25,25,26,27,26,26,25,26,25,24,26,25,25,25,25,27,28,28,29,29,30,34,36,35,36,36,36,36,36,37,37,40,45,49,51,50,48,48,49,50,51,50,51,51,51,51,50,50,51,49,48,48,48,48,49,49,48,48,50,51,50,51,52,52,53,53,57,61,63,64,65,66,69,68,68,69,70,69,68,66,65,65,65,66,65,63,64,64,63,63,62,61,60,59,59,59,57,60,63,65,67,68,69,69,68,67,66,65,65,64,62,62,60,60,59,58,57,56,56,55,55,55,54,54,58,60,60,63,62,61,61,61,63,64,63,63,62,60,60,59,58,57,57,55,54,53,53,52,51,51,51,49,49,50,49,48,48,47,46,46,44,45,45,43,43,42,41,41,40,40,39,39,38,38,38,37,36,36,36,35,35,35,34,34,35,33,33,32,33,33,32,32,32,32,31,31,30,30,30,29,30,17,16,17,17,16,16,16,16,16,16,16,17,16,17,16,17,17,17,16,16,16,17,17,17
87,86,86,85,86,88,89,88,88,88,87,89,88,87,87,87,87,87,86,88,88,88,88,88,88,89,90,88,89,88,88,87,87,89,89,88,86,87,87,86,86,85,86,84,85,85,85,85,86,86,85,85,85,86,86,86,86,85,85,85,86,88,87,86,85,85,85,86,86,86,86,86,86,86,87,87,86,87,85,85,86,87,86,87,86,85,85,85,87,88,87,86,86,86,86,87,86,86,85,84,85,86,87,87,87,88,87,87,87,86,86,86,85,86,86,86,87,87,87,86,85,86,87,87,87,86,87,86,87,88,89,88,88,87,87,88,87,87,87,87,86,86,87,89,89,89,89,89,89,90,89,89,89,88,88,87,88,90,89,89,90,89,89,89,89,89,88,88,87,88,88,88,88,88,87,88,87,88,88,88,87,86,87,86,87,87,87,88,87,87,86,86,85,86,86,85,85,85,87,86,87,86,85,85,86,86,86,86,86,84,84,86,88,88,87,87,87,86,87,88,87,87,87,87,87,88,88,88,87,87,87,86,87,88,87,88,87,86,87,89,89,88,88,87,86,86,86,87,86,85,85,84,84,86,85,85,84,84,83,84,85,84,84,83,83,82,83,85,85,84,84,84,83,84,84,83,83,82,82,82,82,83,83,83,83,82,82,82,82,82,81,80,81,81,83,82,82,82,83,82,83,85,84,84,83,83,84,84,83,85,90,95,97,98,99,108,114,113,115,119,120,123,129,128,130,134,142,143,144,147,149,160,163,174,192,198,204,217,223,233,234,241,246,246,245,248,259,265,269,277,285,294,293,298,303,312,316,313,310,310,322,339,353,366,391,394,391,386,396,395,394,394,398,413,423,422,423,432,439,441,440,447,466,483,484,504,506,509,534,555,574,573,602,639,662,675,673,693,719,733,724,719,725,762,803,807,816,806,797,785,775,772,765,753,745,740,736,772,814,847,838,872,909,917,910,902,888,883,879,870,864,865,854,850,843,836,822,840,848,842,849,844,870,908,903,896,897,901,899,888,893,884,880,867,858,846,835,824,823,828,817,820,818,807,798,798,795,784,783,782,772,758,750,755,748,735,723,715,708,705,702,692,681,673,669,675,675,673,672,671,670,663,659,659,652,641,632,628,622,625,620,623,622,614,619,631,624,617,612,624,624,617,611,613,625,640,660,654,664,655,648,642,631,626,619,613,611,628,633,657,650,641,630,621,614,608,600,593,598,612,631,655,645,635,629,633,630,634,632,627,621,613,615,644,650,663,659,655,653,648,639,634,627,620,614,618,609,599,591,591,586,588,586,582,585,590,585,579,576,574,574,573,580,584,577,571,565,566,567,568,581,583,577,576,570,564,557,554,556,551,549,554,555,557,567,577,586,580,589,594,621,627,617,608,600,594,594,592,586,591,598,614,615,635,654,651,671,683,686,708,705,713,728,720,718,715,707,720,733,721,718,729,734,730,726,735,742,742,768,767,764,773,791,781,793,806,839,838,846,841,838,855,866,853,847,840,830,820,810,846,942,966,982,982,982,981,982,978,973,960,958,958,945,940,961,983,982,982,982,982,982,982,983,982,982,981,982,983,982,982,982,982,981,982,983,982,982,982,982,982,982,982,971,964,958,942,938,975,980,982,982,976,976,976,966,953,940,927,913,910,905,904,896,880,866,862,853,875,894,915,905,894,884,870,856,847,833,817,804,793,784,779,772,764,757,744,733,722,712,699,692,681,671,668,663,652,641,636,629,622,617,623,620,611,603,595,588,580,571,562,552,546,541,534,528,521,512,508,503,495,487,480,473,467,460,454,449,444,437,431,425,419,415,413,409,402,396,389,384,380,376,371,366,361,356,351,349,345,340,334,329,324,320,318,315,312,308,304,301,301,302,298,297,298,297,295,293,292,289,284,280,275,273,271,269,265,261,256,254,250,247,243,240,237,233,230,229,229,226,222,218,217,215,214,211,208,206,204,201,199,198,196,192,190,187,185,183,181,178,176,173,171,170,170,168,165,164,161,160,160,159,157,156,153,152,149,150,150,148,146,145,143,142,142,143,140,139,137,136,136,136,135,133,132,131,130,131,130,130,128,126,125,126,127,126,125,124,123,122,124,125,124,122,121,119,119,120,123,122,120,120,119,120,120,120,118,117,116,114,116,118,117,117,116,116,116,117,118,117,116,116,114,115,117,119,117,116,116,115,116,116,115,114,114,113,113,114,91,91,90,90,90,91,90,91,91,92,93,93,93,93,92,92,91,91,91,91,91,90,91,92
16,16,17,16,17,16,15,17,16,16,16,15,15,16,15,16,16,16,16,15,15,16,15,15,15,15,15,16,16,16,16,16,16,16,16,15,15,15,15,15,16,15,15,16,16,16,16,16,16,16,15,15,16,15,15,15,15,15,15,15,15,15,14,15,15,15,14,15,14,14,14,15,14,14,15,15,15,16,15,15,15,15,15,15,15,15,15,15,15,15,15,15,15,15,14,15,14,15,15,15,15,15,14,14,14,15,14,15,14,15,14,16,15,15,15,14,15,15,15,15,15,16,14,15,15,15,15,15,15,15,15,15,15,15,15,15,14,15,15,16,15,16,15,15,15,15,15,15,15,15,14,15,16,16,16,16,16,15,16,15,16,15,15,16,15,16,16,16,16,16,15,15,16,15,16,16,15,15,15,15,15,15,15,14,15,14,15,15,15,14,14,14,14,15,15,15,14,14,14,15,14,14,15,14,15,14,14,14,14,14,14,14,14,14,14,15,15,14,14,15,15,15,14,14,14,13,15,14,14,14,14,14,15,15,14,14,14,15,17,18,18,18,18,17,18,18,19,18,20,20,21,21,23,22,22,22,23,22,22,22,22,23,22,22,23,22,22,22,23,22,22,22,22,23,24,23,22,23,23,23,24,24,24,23,23,24,24,24,23,23,23,23,22,22,22,22,23,23,23,24,23,24,26,27,27,26,27,27,26,27,27,27,26,27,28,28,27,29,30,29,29,30,30,31,32,33,33,32,33,34,33,33,34,36,36,36,35,35,35,34,34,34,33,33,33,33,33,32,33,34,34,37,40,39,40,39,38,37,38,39,39,37,37,36,35,35,35,36,36,36,37,37,36,36,36,35,35,35,34,34,34,33,34,34,33,33,33,34,34,34,34,34,33,33,33,33,34,34,35,36,36,38,38,38,37,38,37,37,38,36,36,36,35,35,34,35,35,36,36,37,37,36,35,36,36,37,38,37,37,36,36,36,35,35,34,35,35,34,34,34,33,32,32,33,33,33,33,33,33,33,33,33,32,31,32,31,31,31,31,31,31,31,30,30,30,30,29,29,29,28,28,29,30,29,29,29,29,29,31,31,31,32,31,31,31,31,30,30,30,29,30,29,31,30,30,30,30,30,29,29,28,29,28,29,28,28,29,28,28,28,27,27,27,26,27,26,26,28,32,35,36,39,42,43,45,44,43,43,42,41,41,40,39,40,39,40,41,43,42,42,41,41,41,40,41,39,40,39,39,37,37,37,37,38,42,43,46,46,46,47,50,50,49,48,48,47,47,49,52,53,55,55,54,55,55,56,57,57,58,57,57,56,55,56,55,54,54,57,61,63,65,66,68,68,67,67,66,66,65,64,63,63,63,62,60,59,60,59,58,59,59,58,57,59,60,60,59,59,57,57,55,55,55,55,56,55,55,54,53,52,51,51,53,55,57,58,60,59,58,56,56,55,54,54,53,52,51,50,51,50,49,49,49,48,48,47,47,47,45,45,45,45,45,44,43,42,42,42,41,40,40,39,38,38,39,37,37,37,36,35,34,34,34,33,33,32,32,32,32,32,31,31,31,33,33,32,32,32,32,32,31,32,30,31,31,31,31,30,31,31,30,30,29,29,29,28,28,28,28,28,28,28,27,28,28,27,27,27,28,27,26,26,27,25,26,26,25,25,25,25,25,25,24,25,25,25,24,24,24,24,25,24,23,23,23,23,23,23,23,22,22,22,22,23,22,24,23,23,23,22,24,23,23,23,22,22,22,22,22,22,22,21,21,22,22,22,21,21,21,22,21,21,21,21,20,20,20,22,21,22,22,21,21,21,21,21,21,21,20,21,21,23,24,23,23,23,22,23,23,23,22,22,25,29,32,35,35,34,34,34,33,33,32,32,31,31,31,31,31,31,30,30,29,29,29,29,29,28,27,27,27,26,26,27,27,26,26,26,27,28,27,27,26,26,26,26,25,25,25,25,25,24,25,26,25,24,24,23,23,24,24,23,23,23,23,23,23,24,23,23,22,22,22,22,23,22,23,22,22,22,22,22,21,21,21,20,20,21,20,21,21,21,20,20,20,20,20,20,19,19,19,18,20,19,19,19,18,19,18,18,18,18,19,17,18,17,17,17,17,17,17,17,17,17,17,17,17,17,17,16,16,18,16,17,17,17,16,17,16,16,16,17,17,16,16,17,16,16,16,16,16,16,15,15,15,15,14,15,15,15,15,14,15,15,14,15,14,15,15,14,15,15,15,15,15,15,14,14,14,15,15
93,93,92,92,92,91,91,90,91,92,92,91,91,92,91,91,91,91,91,91,92,91,91,90,91,90,92,92,92,93,93,92,93,92,92,92,91,92,92,91,93,92,92,93,93,92,92,92,91,91,91,91,91,90,91,91,90,90,91,90,90,90,90,90,89,89,90,90,91,90,90,90,90,89,91,90,90,90,89,89,89,88,89,89,88,89,87,88,88,87,88,88,88,88,88,89,89,89,90,88,88,88,88,88,88,87,87,88,88,88,89,88,88,89,88,88,88,88,89,88,88,89,88,89,88,89,88,88,89,88,88,88,89,89,89,89,89,89,89,89,89,89,89,88,88,88,89,89,89,89,89,89,89,89,89,89,89,89,89,89,90,90,90,90,90,90,91,91,91,90,90,91,90,89,89,89,89,89,90,90,89,89,88,88,88,88,87,88,89,88,89,89,89,89,89,89,88,88,88,88,87,88,87,86,86,87,87,87,88,89,88,88,88,88,89,88,88,88,89,90,91,92,94,94,94,94,95,103,117,127,130,141,143,148,153,157,170,193,200,211,221,233,244,249,252,267,300,307,322,321,330,334,339,344,347,352,367,372,377,373,379,378,380,383,379,379,383,381,380,385,396,402,438,461,469,467,472,492,509,518,520,514,523,538,537,543,544,558,554,546,539,531,529,541,556,554,546,543,538,548,557,561,570,577,568,559,557,557,551,543,552,579,596,595,604,600,615,606,605,611,618,620,646,658,649,645,642,658,663,673,670,670,669,665,677,719,737,732,744,756,754,742,730,722,710,710,706,715,723,713,711,706,705,705,709,711,701,693,685,674,664,658,650,660,684,684,677,668,658,653,648,638,633,632,628,626,617,609,621,667,682,709,704,701,714,703,702,692,688,689,712,724,720,719,729,722,728,722,710,701,695,684,675,665,675,677,680,686,684,677,668,657,659,671,666,662,654,644,633,629,629,628,635,640,638,633,624,621,617,607,597,588,587,589,580,582,584,589,596,587,600,605,611,607,602,610,613,632,646,655,656,665,672,666,658,648,642,634,624,622,615,608,597,591,590,581,571,570,568,571,571,578,573,564,558,552,545,542,535,531,526,540,542,541,537,535,537,536,533,541,545,543,549,543,542,536,530,522,514,509,504,498,489,482,481,481,476,478,477,474,469,468,464,457,451,443,435,429,422,420,415,410,403,396,390,385,383,383,381,383,380,382,379,374,370,365,362,359,357,353,347,341,337,333,329,324,321,318,313,308,303,300,297,294,292,288,288,290,290,294,293,290,286,283,278,273,270,267,263,260,256,252,248,245,245,242,239,236,233,230,228,226,224,221,218,215,214,212,209,206,204,201,198,197,196,194,192,189,187,185,184,182,180,177,175,173,172,172,170,169,168,166,164,162,161,158,157,156,154,153,152,151,149,148,147,145,144,142,141,139,139,138,137,135,135,134,133,132,131,131,130,129,128,128,127,126,125,125,124,125,124,123,123,121,120,119,119,119,117,117,117,116,116,116,115,114,113,112,111,111,110,110,111,110,110,110,109,108,107,107,106,106,105,104,104,104,103,104,103,103,103,103,101,102,102,101,100,99,98,98,98,98,97,97,96,97,96,96,96,96,96,95,96,95,97,96,96,95,95,94,95,96,96,95,95,95,93,94,95,94,94,94,93,92,93,93,93,92,91,90,90,90,92,91,91,91,90,90,91,91,90,90,89,89,89,90,90,90,89,89,89,89,89,88,88,88,88,87,88,88,89,89,88,88,88,88,89,88,88,87,87,87,87,88,88,88,88,87,87,88,87,87,87,85,85,84,86,87,86,86,85,85,85,85,85,84,84,84,84,83,85,87,86,86,86,85,85,86,85,84,84,84,83,84,85,84,84,84,84,84,83,84,83,83,82,83,82,83,84,84,84,83,83,83,84,85,84,83,84,84,84,84,85,85,85,84,84,85,85,85,85,85,85,84,84,84,85,85,84,84,84,83,85,85,85,85,84,84,84,85,87,87,86,86,86,86,87,87,87,86,86,86,87,88,88,88,88,87,86,87,86,86,86,87,86,86,87,87,87,87,87,88,87,87,88,87,87,87,87,86,87,87,87,87,86,86,87,86,87,86,86,86,86,86,87,87,87,87,86,86,85,86,85,85,85,85,85,85,86,86,86,86,86,85,86,86,86,86,87,87,87,87,89,88,89,88,88,87,87,87,87,87,87,87,87,87,86,86,87,87,86,85,85,84,86,87,87,86,86,86,85,85,87,85,85,84,84,84,84,86,86
15,15,14,14,15,14,14,14,14,14,14,14,15,15,14,15,14,15,15,14,14,14,14,14,14,14,14,15,14,14,14,14,14,15,14,14,14,14,14,15,14,14,14,14,14,14,14,14,14,14,14,14,14,14,14,14,14,15,15,14,14,14,15,14,14,14,14,15,15,14,15,15,14,14,15,15,15,15,15,14,14,15,16,15,15,14,14,15,15,15,15,14,15,15,15,15,15,14,15,15,15,15,15,15,15,15,15,16,15,16,16,15,15,16,15,15,15,15,15,14,15,15,15,15,15,16,14,15,15,15,15,15,15,14,14,14,15,15,15,15,15,15,14,15,15,15,14,14,14,15,15,15,14,14,14,14,14,15,14,14,15,14,14,16,15,14,15,14,14,14,14,14,14,14,14,14,15,15,15,15,14,14,14,14,14,14,13,15,13,14,14,14,14,14,14,14,14,14,14,14,14,14,14,15,18,17,16,17,16,16,16,17,16,16,17,18,17,17,17,17,16,18,18,18,19,19,18,19,18,19,20,20,20,21,21,22,21,22,21,21,23,23,24,24,24,24,24,24,24,24,23,24,23,24,25,25,26,27,25,26,25,25,25,26,27,27,26,26,27,26,27,28,28,28,28,28,29,29,31,31,32,34,34,34,34,37,40,41,40,41,40,40,39,39,39,39,38,39,40,39,39,39,39,38,38,38,38,37,36,36,36,36,37,38,38,37,38,38,39,39,39,40,42,41,41,41,40,39,41,42,40,41,39,39,38,39,39,41,42,41,40,42,42,43,43,43,42,42,41,40,39,39,41,41,42,41,41,41,41,40,39,40,40,41,41,40,40,39,38,38,38,39,41,41,40,40,40,40,40,40,41,41,41,40,41,41,40,40,39,40,39,39,38,38,38,36,36,36,35,36,35,34,35,35,35,35,36,35,34,34,34,33,35,35,35,35,35,35,34,33,34,33,33,32,31,33,32,32,31,31,31,32,31,30,31,32,33,33,32,32,32,34,36,37,36,36,35,37,35,35,34,34,34,34,35,34,33,33,32,32,32,32,31,32,32,32,32,31,31,30,30,31,30,31,30,30,31,30,29,29,29,28,28,28,27,28,29,28,28,28,27,27,28,27,28,26,28,27,27,28,27,27,27,26,27,26,27,27,26,26,26,26,26,26,25,25,25,25,24,24,24,23,23,23,23,23,23,23,23,22,23,22,22,22,21,21,21,21,21,21,21,20,21,21,20,20,21,20,20,19,19,20,20,20,20,20,19,19,19,19,18,19,18,19,19,20,20,20,21,20,24,24,25,27,28,31,30,30,31,31,30,30,30,29,29,30,29,29,29,29,29,31,32,33,33,34,33,35,37,36,37,38,38,38,40,42,49,56,61,62,68,69,69,72,72,73,74,72,73,72,72,70,69,69,69,67,67,66,65,65,65,66,65,66,66,65,63,62,62,63,64,62,61,61,61,59,59,58,57,56,55,54,54,55,57,56,58,58,57,56,56,55,56,54,53,52,51,51,50,49,49,48,51,53,54,55,57,57,56,54,54,54,52,52,51,50,50,49,49,47,46,46,45,44,44,43,43,42,43,42,41,41,41,39,39,39,39,38,38,37,36,36,35,36,35,35,34,34,33,33,33,32,31,31,31,31,30,31,31,30,30,30,30,30,29,29,29,28,28,27,27,28,27,27,27,26,26,26,26,25,25,26,25,25,25,24,24,25,24,24,24,24,24,23,23,24,23,23,23,23,23,23,22,23,22,22,21,22,22,22,22,22,21,21,21,23,22,21,21,21,20,21,21,21,21,20,20,21,19,20,20,20,19,19,20,20,20,20,19,20,19,19,19,19,19,20,19,19,20,19,18,19,19,19,19,19,19,18,19,18,19,19,19,18,18,18,19,17,18,17,18,18,18,17,17,18,18,18,18,17,18,18,18,18,18,17,18,18,18,19,18,18,19,18,18,18,18,18,18,18,17,18,19,19,19,18,17,18,18,17,18,18,18,18,18,19,19,19,19,18,18,18,18,18,18,18,18,18,18,18,18,18,18,18,18,17,17,18,18,18,17,18,18,18,18,17,17,18,17,17,17,17,17,16,17,17,17,17,16,16,17,16,17,16,15,17,16,16,16,16,16,16,15,15,15,15,16,15,15,15,15,15,15,15,15,15,14,15,15,15,16,15,15,15,15,15,15,15,15,15,15,15,15,13,14,14,14,14,14,14,14,14,14,14,14,14,14,14,14,14,14,14,14,14,14,14,13,14,14,14,13
86,84,84,84,84,83,83,83,82,81,82,83,84,84,83,83,82,83,83,83,84,83,82,82,82,83,83,83,83,82,82,82,81,81,81,81,79,79,80,82,81,82,81,80,81,81,82,82,81,82,80,81,81,83,82,81,81,81,81,81,83,83,81,81,81,80,82,83,83,82,83,82,82,83,83,83,82,82,81,82,83,83,83,83,82,82,83,84,84,83,83,82,82,83,83,84,83,83,82,83,83,83,83,83,82,82,82,84,86,85,86,86,85,85,85,85,85,84,83,84,83,85,85,85,84,84,84,83,83,84,83,82,81,81,81,83,84,83,83,82,82,82,83,82,82,81,82,81,83,83,82,82,82,82,82,81,81,81,80,81,80,80,81,84,83,82,82,82,82,82,85,86,86,87,86,86,87,87,88,90,93,97,99,102,100,100,99,100,104,105,106,108,109,113,117,125,130,131,131,133,139,150,156,157,157,159,168,174,176,176,184,199,200,210,230,238,236,242,244,243,242,244,244,250,260,261,260,260,261,265,268,272,282,283,279,286,303,303,312,316,314,321,328,334,350,349,349,360,368,369,394,438,455,466,494,487,488,491,496,491,483,480,483,505,544,551,577,592,586,578,571,579,590,585,586,584,591,598,593,588,599,624,629,662,660,653,647,652,652,641,643,665,692,689,684,675,685,673,689,690,708,717,716,711,716,732,747,760,757,764,767,769,808,825,839,842,838,838,871,875,883,891,889,890,879,869,852,841,831,830,824,813,810,810,807,812,829,832,848,877,864,850,859,884,895,913,904,900,894,892,887,873,871,862,862,899,910,940,940,934,942,944,931,958,969,953,935,918,902,885,868,857,845,831,818,816,808,802,798,796,796,788,781,788,804,810,825,838,847,859,846,836,825,818,804,800,806,815,807,806,799,793,798,788,778,768,764,757,748,742,746,744,742,739,737,728,721,720,712,724,733,722,713,705,697,689,680,674,681,675,664,662,660,651,650,640,639,636,657,677,692,718,716,709,705,716,707,701,693,693,683,673,663,675,672,667,679,704,698,693,691,687,692,711,726,744,734,730,729,724,725,719,722,725,712,708,698,697,695,690,677,673,671,680,692,695,690,692,680,669,660,663,658,654,653,667,685,689,696,695,693,688,682,683,682,676,670,666,665,657,649,642,645,645,640,638,627,616,608,598,593,588,588,581,574,574,574,576,577,579,571,569,563,554,551,544,536,531,524,524,524,524,538,535,527,518,509,502,495,487,481,480,477,471,464,459,456,455,450,443,436,431,426,423,421,415,410,410,407,405,400,393,387,382,379,375,371,366,363,359,354,348,343,340,337,332,327,322,317,313,310,308,305,300,296,292,289,285,282,278,274,269,266,264,262,260,257,253,249,246,245,244,240,237,232,229,226,225,224,220,217,214,212,210,209,207,204,201,198,196,195,195,193,191,188,185,183,182,181,178,175,173,170,169,170,169,166,164,162,160,158,158,156,154,151,150,148,148,148,146,144,142,140,140,140,139,138,136,134,133,133,135,134,133,130,130,130,129,130,129,127,126,125,124,126,127,126,125,124,124,125,125,124,123,122,121,121,124,126,127,126,126,126,127,129,129,129,128,127,126,127,128,129,128,128,127,127,128,127,126,126,126,127,128,132,133,133,132,132,132,134,136,136,135,135,134,134,136,137,135,136,135,136,137,138,138,137,136,135,135,136,138,139,138,138,137,137,137,137,136,135,133,133,133,136,137,136,135,135,134,136,135,135,134,133,132,132,134,134,134,133,132,132,132,132,134,133,133,131,130,130,131,131,130,130,129,130,131,131,130,130,128,128,129,130,130,130,129,128,128,128,129,129,128,127,125,124,125,127,127,127,126,126,127,127,125,124,124,122,122,123,124,122,121,121,120,120,121,121,120,118,118,117,117,119,120,119,118,117,116,118,119,118,116,115,114,112,114,117,117,116,114,114,114,115,116,115,113,113,112,112,114,113,113,111,111,111,112,112,111,109,109,109,108,111,113,112,111,110,109,108,109,108,108,106,105,105,106,108,107,106,106,105,104,103,102,102,102,101,100,100,101,102,101,101,100,99,99,99,99,98,97,96,96,97,97,96,96,96,95,96,95,94,95,95,95,94,94,95,94,94,94,95,94,94,94,93,93,93,93,93,93,93,94,93,94,94,94,94,94,94,93,93,92,93,93,92,93,93,94,94,93,93,77,78,79,81,81,80,80,79,81,81,81,80,80,80,80,80,80,80,80,80,80,80,79,80,79,79,79,79
14,13,14,13,13,14,14,14,13,14,14,13,14,13,14,14,15,14,14,14,14,15,14,14,14,14,13,14,14,14,14,14,14,14,15,14,14,14,14,14,15,14,14,15,14,16,15,14,14,14,15,15,15,14,14,14,14,16,15,15,15,15,15,14,15,15,15,15,15,15,15,15,15,15,15,15,15,15,14,15,14,14,14,14,15,15,14,14,14,14,14,14,15,15,15,14,14,14,14,14,15,14,14,14,14,14,14,14,14,14,13,14,13,14,14,14,14,15,14,14,14,14,14,15,14,14,14,14,14,14,14,14,15,14,14,15,14,14,16,15,15,15,14,15,14,15,14,14,15,15,14,14,14,15,15,15,15,14,14,15,14,14,14,14,14,15,14,14,14,14,14,14,15,14,15,15,14,14,14,15,15,15,15,15,15,15,14,14,14,15,14,14,14,15,15,14,14,14,14,14,14,15,14,15,14,15,14,14,15,15,15,14,15,15,15,15,16,16,15,15,15,17,17,17,17,17,17,17,17,17,18,17,18,18,17,18,18,17,17,17,17,17,18,18,18,18,18,18,18,18,18,19,18,17,18,18,18,18,18,18,18,18,18,19,19,20,19,19,19,20,20,21,22,22,23,25,27,27,26,26,27,26,26,26,26,25,25,25,25,26,27,29,29,29,29,29,28,28,28,28,28,28,29,30,30,30,32,36,38,40,40,40,40,41,41,42,42,43,42,41,42,42,42,41,41,41,41,41,41,39,39,40,40,40,39,39,42,42,42,42,42,42,42,42,41,42,41,41,42,45,44,47,47,47,46,45,46,47,47,47,46,46,46,44,44,43,42,43,41,41,42,41,42,41,41,40,41,43,43,42,42,41,41,42,43,43,42,42,41,40,40,39,39,39,39,39,39,39,40,39,39,38,37,37,38,37,37,36,36,35,35,36,35,35,35,34,34,33,33,33,33,33,32,31,31,31,30,30,30,30,30,30,30,30,30,29,29,29,28,28,28,28,28,28,27,29,28,28,28,27,29,29,28,28,28,27,29,28,28,27,27,26,26,26,27,27,26,26,26,26,26,26,25,25,25,25,25,24,23,24,24,23,25,25,25,24,24,24,23,23,23,23,22,23,22,22,22,22,22,21,21,21,21,21,20,21,21,21,21,21,21,21,21,21,21,21,21,21,20,20,20,20,21,20,20,20,19,20,20,20,20,19,20,19,19,19,19,19,18,18,18,18,19,17,19,22,24,24,30,30,35,42,48,49,50,52,51,53,52,55,58,57,57,57,56,56,57,58,65,70,73,72,73,76,78,79,78,77,75,74,76,77,77,77,77,75,75,75,79,79,78,77,76,75,74,72,72,74,76,78,77,76,76,77,78,76,75,73,72,71,71,69,67,67,66,64,64,63,62,62,61,60,62,61,59,59,58,57,57,55,54,54,53,53,51,51,50,50,50,49,48,47,46,46,46,44,44,42,42,43,42,42,41,40,40,40,39,39,38,37,37,36,36,35,35,35,35,34,34,34,33,33,32,32,32,31,32,31,31,30,30,30,29,29,28,28,28,28,27,28,28,28,27,27,26,26,26,26,26,25,25,25,25,25,25,25,24,24,24,24,25,24,23,24,22,23,23,23,22,23,22,22,22,21,21,21,20,20,20,21,20,20,20,21,20,20,20,20,20,20,19,19,19,19,19,19,19,19,19,19,19,19,19,18,19,18,19,19,19,18,18,18,18,18,19,18,18,18,17,17,18,18,17,18,17,17,17,17,17,17,17,16,17,17,18,18,17,18,18,18,18,18,18,17,17,17,17,17,18,18,18,17,17,17,17,18,18,17,17,17,17,16,18,18,18,18,17,17,18,18,18,18,17,17,18,18,18,18,18,18,17,17,17,18,17,17,18,17,18,18,17,17,17,18,16,17,17,17,16,16,16,16,17,16,17,17,16,16,17,16,16,16,17,16,16,16,16,16,16,17,16,16,16,16,16,16,17,16,16,17,16,16,16,16,16,16,16,16,15,15,16,15,15,15,16,16,16,15,15,15,15,16,16,16,15,16,16,15,16,16,15,16,15,16,16,16,16,16,16,15,15,16,16,15,15,16,15,15,15,15,15,16,15,16,15,16,15,16,16,15,16,15,15,15,15,15,15,16,16,16,15,16,16,16,17,15,15,16,16,16,16,16,16,16,16,16,16,16,16,16,16,18,18,18,18,18,18,18,18,18,18,17,18,18,17,18,19,18,18,18,18,18,18,18,18,17,18,18,17,18,18
79,79,81,80,80,80,80,80,82,81,81,81,81,80,80,81,81,82,81,81,80,81,80,80,80,80,79,78,80,82,84,85,84,84,83,84,83,83,83,82,81,82,84,86,87,86,86,86,86,85,86,85,84,85,85,86,87,87,87,87,86,86,86,86,86,85,86,87,87,88,89,88,89,88,87,88,88,88,88,88,88,89,90,90,90,91,90,89,90,89,91,92,91,91,91,92,92,92,93,93,92,92,91,91,91,90,90,89,89,88,89,89,92,90,90,91,90,90,90,90,90,90,89,89,89,90,91,91,90,89,90,89,89,88,88,88,87,87,88,90,90,90,88,89,88,87,87,86,86,87,87,87,86,89,88,89,89,89,88,89,88,86,86,86,86,85,86,87,87,85,86,86,85,86,86,86,86,87,87,87,88,88,88,87,87,87,87,87,87,86,86,85,84,86,86,86,86,85,86,86,89,90,90,90,90,89,89,88,91,91,92,92,94,94,94,95,94,98,106,121,139,144,160,176,186,188,186,187,196,220,245,261,261,274,295,298,299,306,312,321,332,329,328,329,332,327,324,320,323,320,320,318,320,339,371,386,387,402,399,396,394,407,428,432,448,478,507,504,506,504,498,499,518,544,570,574,600,603,625,628,625,631,626,621,629,625,629,646,647,637,640,635,629,643,655,653,654,678,693,686,684,682,699,710,699,695,692,692,712,709,702,716,734,776,786,801,811,808,843,873,884,916,913,900,886,875,888,896,889,904,894,897,932,931,922,908,907,896,888,879,867,851,847,853,843,840,831,846,841,842,858,877,893,898,884,867,857,857,861,853,848,835,822,811,800,791,792,787,783,776,764,759,754,750,770,776,778,781,776,785,773,768,756,745,739,745,739,755,750,750,747,742,734,739,744,734,729,735,726,715,706,696,692,690,685,675,680,670,661,655,648,642,647,638,629,620,611,606,615,613,619,618,617,608,598,594,586,578,584,585,586,589,584,580,578,579,573,565,556,548,540,536,528,531,535,527,519,512,504,499,500,515,520,521,517,517,528,528,519,513,514,508,511,519,515,508,506,500,496,488,487,498,501,506,506,498,492,483,478,478,472,470,481,480,476,469,464,457,450,444,438,440,435,437,434,433,426,423,418,413,422,426,421,421,418,413,410,405,401,399,396,398,397,394,394,389,384,380,377,385,384,381,375,370,367,362,364,364,360,359,356,352,347,342,338,337,337,337,335,338,336,339,338,332,328,323,320,316,314,312,309,305,302,298,294,292,291,287,283,279,276,274,274,271,268,264,260,256,255,255,255,251,247,245,242,239,238,235,231,228,224,223,222,220,217,214,211,210,209,208,207,203,201,198,195,193,194,191,188,185,183,182,181,179,177,174,172,170,170,170,168,166,164,162,160,158,158,156,154,153,150,149,149,147,145,144,142,140,140,139,138,136,135,133,131,132,134,132,130,130,128,129,129,127,126,125,124,122,123,124,126,124,123,122,123,124,124,122,121,120,119,119,120,120,120,119,117,116,117,118,117,116,115,114,114,115,116,115,114,113,112,113,113,113,112,111,111,112,113,116,117,117,116,115,114,114,115,115,114,113,112,112,114,115,114,114,112,111,112,113,113,112,111,110,110,110,113,112,110,109,108,109,109,108,106,106,105,104,105,106,105,104,103,103,102,102,102,102,101,99,98,99,99,100,99,98,97,97,98,99,97,96,96,96,95,95,97,97,96,95,94,95,95,96,95,94,94,94,94,92,94,94,94,93,92,92,93,93,93,92,91,90,91,92,95,93,94,93,94,93,93,93,94,92,93,92,93,94,96,95,95,94,94,94,94,93,92,92,91,92,92,93,95,95,95,94,94,92,94,93,93,93,93,93,93,95,95,95,95,95,95,94,94,94,93,93,93,93,93,94,93,93,94,94,94,94,93,93,93,94,94,94,94,95,95,96,95,95,95,94,95,95,95,96,96,95,95,95,95,96,95,95,96,95,94,94,94,94,94,94,94,94,95,94,95,94,93,92,93,93,92,92,93,93,93,93,94,93,94,94,94,95,94,94,95,94,95,95,95,95,95,94,95,94,94,93,94,94,94,94,94,94,94,94,94,94,94,94,93,93,93,93,93,93,94,94,93,94,94,94,93,93,92,93,94,94,95,94,94,95,95,95,95,95,94,93,93,93,93,94,95,94,94,94,94,95,95,94,94,94,94,85,86,86,85,85,84,85,85,85,84,83,83,83,85,85,85,84,84,83,83,83,84,84,83,83,82,82,84,86,85
18,17,18,18,18,19,19,18,17,17,18,18,19,19,18,18,18,19,18,19,19,19,19,18,18,19,20,19,19,19,19,19,20,18,19,18,18,19,19,20,20,20,19,19,20,19,20,20,20,19,19,20,20,20,20,20,19,19,19,19,19,19,18,18,18,18,18,19,19,19,18,18,19,19,19,19,19,19,19,19,19,19,19,19,19,18,18,19,18,19,18,18,18,19,20,20,19,19,20,20,19,20,20,19,20,19,19,20,20,20,20,20,20,20,20,20,20,20,20,19,20,19,19,19,19,20,19,19,20,19,20,20,20,19,19,19,20,19,19,20,19,20,20,20,19,20,20,19,20,20,21,21,20,20,21,20,21,21,21,21,20,21,21,22,22,22,22,21,21,21,22,23,22,22,22,22,23,24,24,24,24,23,23,24,25,24,24,24,24,24,24,25,25,24,24,24,24,24,25,25,24,24,24,25,26,25,25,25,24,24,24,24,25,24,24,23,23,25,25,26,25,24,25,24,25,25,25,25,24,24,24,25,24,25,24,24,24,24,28,34,39,40,45,44,42,42,45,53,59,62,69,68,67,66,64,63,62,61,59,60,59,57,57,57,56,55,55,53,53,53,51,51,52,51,51,49,50,48,48,48,47,46,47,47,45,45,44,44,43,42,43,42,42,41,41,40,40,40,39,41,40,39,39,40,40,39,38,38,37,38,36,36,36,36,36,36,38,37,37,38,37,37,36,36,38,44,46,49,50,49,48,48,47,47,47,48,47,48,48,47,47,46,45,44,44,43,43,44,43,43,42,42,42,41,40,40,41,43,43,42,41,41,41,40,40,39,39,41,40,40,39,40,41,41,41,42,43,44,43,45,44,44,43,43,43,43,43,43,42,42,43,42,41,40,40,40,41,40,40,40,39,39,38,37,37,37,38,37,36,36,36,36,35,35,35,35,36,35,35,35,34,34,33,33,32,33,31,31,31,34,37,39,39,42,44,44,44,44,45,45,45,43,43,42,42,41,40,40,39,39,38,38,37,38,37,36,36,35,34,34,34,34,33,33,33,33,33,33,33,34,34,33,34,32,33,33,33,32,32,32,32,32,31,30,30,29,29,29,29,29,29,27,27,28,27,28,27,27,28,28,27,27,27,26,26,26,26,25,25,25,24,24,24,25,25,25,25,26,25,26,26,26,26,25,25,25,26,24,25,26,25,24,25,24,25,24,24,25,24,24,24,24,24,23,23,23,23,23,22,22,22,22,22,22,21,22,21,22,25,26,27,30,31,32,31,32,34,34,35,41,42,44,50,53,52,54,56,56,56,54,55,55,54,54,55,55,55,54,55,60,65,66,67,74,74,76,79,80,78,77,76,74,73,72,70,69,70,72,71,70,68,67,66,65,64,63,63,61,61,61,61,59,58,58,57,56,58,60,61,60,63,63,62,61,60,59,58,57,56,56,54,54,53,52,52,50,49,49,48,47,47,47,46,46,45,46,45,43,44,44,42,42,41,41,41,40,40,40,39,39,38,37,37,38,36,36,35,35,35,35,35,35,34,33,32,33,34,34,34,33,32,32,32,33,32,32,31,31,31,30,31,31,31,30,30,29,29,29,28,28,28,27,27,28,27,27,27,27,26,27,27,26,25,25,25,25,26,26,26,25,25,24,25,24,25,25,25,25,25,24,25,25,25,23,23,23,23,23,23,22,22,23,22,22,22,22,21,22,21,21,21,21,21,21,20,20,20,20,20,21,21,20,20,19,20,19,19,19,19,18,19,20,19,20,19,19,19,18,19,18,18,18,19,19,18,18,18,19,18,17,18,17,18,17,17,17,17,16,17,17,18,17,18,17,18,19,19,19,19,18,19,18,18,19,19,19,18,18,18,19,19,18,19,18,18,17,18,19,19,19,18,18,18,18,19,19,18,18,17,18,18,18,19,18,18,18,17,17,17,16,16,17,17,18,20,19,20,19,19,19,19,18,19,18,19,18,18,18,19,19,18,18,17,17,17,18,18,18,18,17,17,17,18,18,18,17,17,18,17,17,17,17,17,16,17,17,17,16,17,17,17,17,17,16,16,16,16,17,16,16,17,16,16,17,16,16,17,17,17,16,16,16,17,16,17,17,16,16,17,18,18,18,18,18,18,17,18,18,18,19,18,18,18,18,18,18,17,17,17,17,17,17,17,17,17,17,18,17,17,14,14,15,14,15,14,16,14,15,14,14,14,15,15,16,16,16,15,15,16,17,17,18,18,18,18,19,19,18,18,18,17
84,84,84,84,84,85,83,83,82,82,82,84,84,85,83,82,83,83,83,83,83,82,82,82,83,85,85,85,85,84,84,84,84,84,84,83,83,83,84,87,88,87,87,86,86,86,86,86,86,86,85,86,86,87,86,85,85,85,85,85,85,84,83,84,83,84,84,85,85,84,84,83,84,84,84,83,83,83,82,82,84,84,84,83,83,82,83,83,82,82,82,82,82,83,84,84,84,83,83,83,82,83,83,83,83,82,82,83,86,86,85,84,84,85,85,85,85,84,83,83,83,84,83,82,83,82,82,83,84,83,83,82,83,82,82,83,83,82,82,82,82,82,84,84,83,83,83,82,83,86,85,84,84,84,84,85,85,84,84,83,82,83,85,87,88,87,86,85,86,85,85,85,85,84,83,86,87,90,89,89,88,88,88,89,89,89,88,88,87,88,88,89,88,88,87,87,89,88,88,87,86,86,86,88,90,90,89,89,88,88,90,89,89,88,88,88,88,90,91,90,89,88,88,89,90,90,89,88,88,87,87,90,91,89,89,88,88,91,92,91,91,91,90,91,90,91,91,91,91,92,92,93,95,94,95,97,101,102,106,112,114,113,115,119,122,125,132,134,137,141,145,144,145,149,153,152,156,165,166,168,170,179,193,202,206,213,212,210,216,244,256,270,272,280,277,277,279,284,303,325,329,338,363,371,368,380,407,428,422,432,466,472,489,487,481,480,474,467,462,476,504,530,529,558,556,567,592,622,652,657,666,680,691,693,691,690,685,683,681,676,680,686,687,675,668,659,653,653,659,662,674,693,692,696,703,695,698,700,690,684,679,669,660,675,691,686,689,681,682,676,672,691,689,690,708,705,695,683,699,718,718,729,723,717,710,707,711,714,705,701,692,686,682,678,676,699,717,724,731,737,728,717,707,704,698,692,701,700,702,695,687,677,673,678,684,678,667,658,662,660,650,642,634,636,628,623,612,607,605,599,598,608,619,614,602,592,595,607,613,626,619,615,606,595,585,576,574,569,561,553,546,548,555,549,544,543,543,539,541,541,533,527,530,526,528,519,515,513,506,502,495,489,481,474,468,462,459,459,461,455,451,446,443,442,435,438,435,446,450,444,438,434,427,427,427,422,422,416,412,410,403,400,396,398,405,405,403,402,400,394,388,382,377,373,372,372,369,364,358,355,357,354,355,355,355,350,346,341,336,332,330,329,327,322,317,311,307,305,301,303,301,300,308,314,316,320,324,320,315,311,306,302,300,296,292,288,287,284,281,277,273,271,268,265,262,260,256,255,253,252,251,248,245,242,240,236,233,230,226,225,223,220,218,214,212,210,209,206,202,200,199,197,195,194,191,188,186,184,181,180,177,175,174,171,168,168,167,165,163,161,159,158,159,157,155,153,152,149,148,148,146,144,143,142,140,139,139,137,135,135,133,131,132,132,131,130,128,127,126,127,126,125,123,122,121,123,124,124,123,121,121,120,121,122,120,119,117,115,116,116,116,115,114,113,112,112,113,113,111,110,109,108,110,111,110,110,109,108,108,108,108,107,106,105,105,106,108,108,107,106,105,105,105,105,105,104,103,102,101,103,105,104,103,102,102,103,103,102,101,101,101,100,100,101,101,99,100,99,99,99,98,98,97,96,96,97,98,98,98,97,97,97,97,96,96,96,95,94,94,95,96,95,95,95,93,94,93,93,92,92,92,92,91,93,93,92,92,92,91,91,92,92,91,91,91,91,91,91,91,91,91,90,90,89,89,89,89,89,89,90,89,90,90,90,91,90,90,89,90,89,90,89,89,89,89,90,89,89,89,90,90,89,89,89,89,90,90,90,90,90,90,90,90,90,90,92,91,92,92,92,91,92,91,92,93,93,94,94,93,94,93,93,93,93,93,93,94,94,94,95,95,94,93,93,92,93,93,93,94,94,94,94,95,95,95,95,93,94,93,95,94,94,95,94,95,95,95,95,95,94,94,93,93,93,95,94,95,95,95,94,95,94,94,94,93,93,93,94,94,94,95,95,94,95,96,95,95,94,94,94,95,94,95,94,95,96,95,95,95,95,95,93,94,93,94,95,96,96,97,96,96,97,96,96,95,95,94,94,95,96,96,96,95,96,96,96,97,97,97,96,96,96,96,96,96,96,97,98,97,98,97,96,97,96,95,95,96,97,98,97,97,97,97,96,96,95,95,95,94,83,83,83,83,83,83,83,83,82,83,83,82,83,83,85,84,84,84,83,83,84,83,83,83,82,82,84,85,84,84,83,82
17,17,17,17,17,18,17,17,17,18,18,18,17,17,17,16,16,17,16,16,16,16,18,18,19,18,19,19,19,19,19,19,19,19,19,19,19,19,19,19,19,18,19,19,18,18,18,18,17,18,18,18,17,17,17,17,17,17,16,16,16,17,17,17,17,18,17,18,18,19,19,19,19,18,18,18,18,18,19,18,18,18,18,17,18,17,18,18,17,17,17,18,18,17,18,17,17,17,18,17,16,16,16,17,16,17,17,17,16,16,16,16,17,17,17,18,18,18,18,19,18,18,18,18,17,17,17,17,17,16,17,17,17,17,17,17,17,17,17,17,17,17,17,17,16,16,17,17,17,17,17,17,18,19,19,19,20,20,20,20,20,20,19,19,19,19,19,19,18,19,19,18,18,18,18,18,18,18,19,19,18,19,19,18,18,18,18,19,19,19,19,18,19,19,19,20,20,21,20,20,20,20,20,20,21,19,19,20,19,19,20,19,19,19,19,19,19,19,18,19,18,19,18,19,18,18,18,18,19,20,20,19,20,19,19,19,19,19,19,19,18,18,18,19,19,19,19,18,18,19,19,18,18,18,18,18,18,19,19,18,19,19,19,20,20,20,19,20,19,19,20,21,19,20,20,19,19,20,19,19,18,19,18,18,20,20,19,21,21,21,22,22,21,22,22,21,23,28,29,33,36,37,35,35,35,35,34,35,38,40,43,45,45,44,43,44,43,43,44,43,42,43,43,41,41,41,41,40,39,39,38,38,38,37,37,36,35,36,35,36,35,35,34,34,33,35,35,35,34,36,40,41,43,44,46,45,44,44,44,46,52,54,52,56,58,56,56,55,54,54,53,52,52,54,58,59,64,63,64,63,63,62,61,60,60,58,57,58,57,55,54,54,52,56,59,62,62,64,63,62,61,60,60,58,58,57,56,55,55,54,53,52,52,51,50,51,49,48,48,48,48,48,48,46,47,46,45,44,45,46,45,44,43,42,42,42,42,41,40,40,39,39,39,39,38,37,37,37,37,37,37,36,36,35,36,36,36,36,37,36,36,36,36,35,35,34,34,34,33,33,34,35,34,34,34,33,33,33,33,34,33,35,38,39,38,39,39,39,41,42,42,41,40,41,40,41,40,39,40,40,40,41,41,41,41,41,41,40,40,40,40,40,41,46,49,48,52,52,51,51,50,50,49,49,49,52,51,51,51,50,50,51,51,51,50,52,52,51,51,51,49,49,48,48,48,47,48,50,52,51,50,51,51,51,50,52,53,53,53,52,53,55,55,55,55,55,56,58,59,57,56,55,54,54,56,56,55,55,56,56,55,55,54,54,52,52,52,52,52,52,51,51,51,50,52,56,58,57,61,64,66,68,70,68,67,66,65,65,63,62,62,61,61,60,59,58,58,57,56,55,54,54,55,57,57,56,55,55,58,57,56,57,55,55,54,53,52,52,51,50,49,49,48,48,48,47,47,46,46,44,44,44,44,43,43,42,43,41,42,41,40,40,40,39,38,38,38,38,37,37,37,37,37,37,37,38,38,38,38,38,37,37,36,36,36,35,35,34,34,34,34,35,33,33,33,32,33,33,32,33,32,32,32,32,32,32,31,31,35,41,42,43,47,50,49,51,52,52,51,55,56,54,54,53,52,51,50,50,49,49,49,47,47,49,50,49,49,48,50,52,53,53,58,60,59,59,58,58,61,62,60,60,60,59,59,62,61,61,60,59,59,58,58,60,61,61,62,63,62,64,65,64,63,65,65,64,64,62,61,60,60,64,67,70,69,69,68,67,71,73,75,79,78,79,79,79,77,76,74,74,74,74,72,72,70,70,76,77,76,76,75,75,78,79,78,78,78,77,76,74,74,72,72,73,74,72,73,72,71,70,70,70,69,68,69,68,67,68,72,75,75,77,77,76,76,74,75,74,79,81,80,80,78,78,77,80,82,84,84,83,81,81,81,80,78,77,75,74,73,72,71,69,68,67,67,67,67,65,65,67,69,70,70,70,69,68,66,66,65,66,65,64,62,62,60,59,58,58,56,56,55,54,54,54,54,53,52,52,51,50,49,48,48,48,48,51,53,52,53,52,51,50,52,52,52,51,53,55,55,57,58,58,56,55,55,53,53,53,52,51,50,49,49,49,48,47,47,46,46,45,46,46,45,44,43,42,44,43,42,42,41,41,41,42,42,43,41,14,14,14,13,14,14,13,13,14,14,14,14,14,13,13,13,13,13,13,13,13,14,13,13,13,13,13,13,13,13,13,13,13,14
82,82,83,82,82,83,82,82,83,84,83,83,82,82,82,81,81,81,81,80,81,81,82,84,83,83,83,83,83,84,83,84,84,84,83,84,86,86,86,85,85,85,85,85,84,83,83,83,83,83,85,84,83,83,83,82,82,82,82,81,81,81,80,81,82,82,82,82,81,81,82,82,82,81,81,81,82,82,84,83,84,83,84,83,84,83,83,82,82,82,83,85,85,85,84,84,83,84,84,83,83,83,83,82,84,84,84,83,83,83,83,82,82,82,82,82,82,82,82,85,85,84,84,84,84,84,84,84,83,83,83,82,83,84,84,83,83,83,82,83,83,83,83,82,82,83,85,87,86,86,86,85,86,87,85,85,85,85,85,84,88,87,86,86,86,85,85,85,85,85,85,84,85,86,87,86,85,85,84,84,84,84,84,83,83,82,82,84,85,84,84,84,82,82,83,83,82,81,81,81,82,83,84,83,82,83,82,82,83,82,82,81,81,80,83,85,84,83,83,83,83,84,85,85,84,83,83,83,83,85,85,84,83,83,83,83,83,83,82,82,81,82,83,84,84,83,83,83,83,85,84,83,83,82,82,83,85,85,85,85,85,84,85,86,86,85,84,84,83,84,86,85,85,84,84,85,84,85,84,83,83,83,83,83,87,86,85,85,84,84,84,86,85,85,83,83,83,86,87,86,87,86,86,86,88,87,87,86,86,85,86,87,88,87,87,86,86,85,86,85,85,85,85,83,85,86,86,85,84,84,83,84,85,85,84,83,83,83,85,86,86,86,85,84,84,84,84,84,84,83,82,83,84,87,85,85,84,84,84,85,85,84,84,83,82,83,84,83,84,83,82,82,85,85,85,85,85,84,84,84,87,85,84,83,83,83,84,85,85,84,84,83,83,85,86,85,85,85,85,85,86,86,85,85,84,84,85,85,87,86,85,85,85,85,87,87,86,85,85,85,86,89,90,89,89,88,89,91,93,94,94,93,93,93,93,95,94,95,95,95,96,96,99,98,101,105,106,108,111,118,124,123,125,134,150,166,181,185,204,242,252,249,248,248,252,257,274,287,293,296,309,317,327,331,336,342,354,355,357,367,395,422,428,447,450,447,442,436,433,427,433,432,429,434,427,431,426,429,446,476,499,506,513,536,549,553,555,579,610,620,630,648,655,654,661,681,677,674,667,663,654,656,653,647,660,687,724,732,750,754,756,758,763,772,762,755,749,758,772,761,750,743,746,750,745,741,737,731,728,716,715,726,734,747,791,796,823,825,812,803,799,794,793,794,784,783,773,774,788,782,795,783,770,767,775,773,781,780,780,771,763,756,751,743,734,721,719,730,727,720,720,721,723,717,714,720,714,710,724,753,764,766,757,748,744,736,764,784,798,800,792,787,795,789,803,805,821,828,868,891,918,928,919,909,893,885,870,874,899,901,940,935,919,913,904,895,885,875,867,862,872,879,873,877,900,896,882,874,875,874,860,846,846,834,829,823,828,846,832,844,834,826,825,815,832,861,869,898,898,886,877,886,898,894,889,888,894,893,878,866,862,854,868,858,846,834,823,809,796,784,770,761,747,737,743,736,732,729,731,732,759,751,746,744,757,750,738,726,717,716,707,703,691,682,671,660,655,654,645,637,627,619,615,612,611,606,621,641,654,646,641,634,625,625,619,608,601,591,580,572,567,560,556,550,543,533,525,518,512,506,500,493,486,478,470,463,463,461,456,450,444,438,434,430,423,417,415,411,406,406,404,397,391,384,380,376,371,365,360,355,352,347,344,343,339,334,331,329,326,323,318,313,308,303,300,299,297,293,289,284,280,277,273,271,268,265,262,258,256,256,256,254,250,248,246,244,243,240,236,232,229,228,228,228,225,223,220,218,216,216,213,211,208,205,203,201,202,200,197,194,192,191,192,191,189,187,185,183,182,183,181,178,176,174,174,173,172,170,169,167,166,165,166,168,166,164,164,163,163,163,163,160,160,159,159,159,159,159,157,157,156,158,159,159,158,156,156,155,154,157,156,156,154,153,153,154,155,154,153,152,151,152,155,155,153,152,151,151,152,153,152,151,150,149,148,150,152,152,151,150,149,150,152,153,152,152,152,151,151,153,153,153,152,151,150,151,151,151,149,148,147,147,148,150,150,149,148,148,147,149,149,148,147,147,146,147,149,149,148,147,147,146,145,145,144,144,142,83,83,83,83,82,81,81,81,80,81,81,81,81,81,81,81,80,81,81,81,81,80,80,80,80,81,79,81,79,79,80,81,81,80
13,13,13,13,13,13,13,13,13,13,14,14,14,14,13,13,14,14,14,14,14,14,14,14,14,15,14,14,15,14,14,15,14,14,14,14,15,14,14,14,14,14,13,14,14,14,14,14,15,14,14,14,14,14,15,14,14,14,13,13,15,14,14,14,14,14,13,14,14,14,13,14,14,14,15,14,14,14,14,14,14,15,14,14,14,14,14,15,15,15,15,14,15,15,14,15,15,15,14,14,14,14,14,14,15,13,14,15,15,15,15,14,14,14,14,15,15,15,15,14,14,15,15,14,15,15,15,14,15,15,15,16,15,14,15,14,14,15,14,14,15,14,15,15,16,15,15,15,15,15,15,14,15,15,15,15,15,15,14,14,15,15,15,15,14,15,14,15,14,14,15,14,15,14,15,14,14,14,14,14,14,14,14,14,14,15,14,14,13,14,14,13,13,13,13,14,14,15,14,14,14,14,13,14,15,15,14,14,14,14,14,15,15,14,15,15,14,15,15,15,15,15,14,15,14,15,15,15,15,14,14,14,14,14,14,14,14,14,14,15,14,15,14,14,14,14,15,14,14,14,14,14,14,14,15,14,14,14,15,14,15,14,15,14,15,15,16,15,16,15,15,15,14,15,15,15,15,15,15,15,15,15,15,15,15,15,15,15,15,15,15,15,14,16,17,17,16,16,17,16,16,16,16,16,16,16,16,17,16,17,16,16,16,19,20,20,19,19,19,19,19,20,19,19,19,19,19,19,19,19,20,20,20,20,19,19,20,19,19,20,20,20,20,19,19,19,20,21,21,19,20,20,19,21,19,20,19,19,19,19,19,19,20,20,20,21,21,20,21,22,22,22,22,23,22,22,22,22,22,22,22,21,23,24,23,24,24,25,25,24,24,24,24,24,24,24,24,24,24,24,24,23,23,23,23,23,23,23,22,22,22,23,23,24,24,25,26,26,26,25,25,27,27,27,27,28,28,29,29,30,30,29,29,30,30,30,30,29,29,29,30,30,31,31,30,31,32,31,31,32,32,32,31,32,32,33,33,33,33,32,33,33,34,33,33,33,33,33,33,33,33,33,33,33,33,33,32,32,32,31,32,31,32,31,30,31,30,29,30,29,29,29,30,29,30,30,31,31,31,31,31,30,30,30,29,29,29,29,29,29,29,30,29,29,30,30,29,30,31,30,31,32,31,31,31,31,31,30,30,30,30,29,30,29,29,29,29,31,31,31,31,31,30,30,30,30,30,31,30,29,30,30,31,30,30,30,31,30,29,30,29,30,29,29,28,28,27,28,27,27,27,26,26,26,26,26,26,25,26,28,30,31,31,31,32,37,39,40,44,50,54,54,54,53,53,54,54,54,54,56,55,54,55,54,53,54,56,58,57,58,60,60,61,63,69,74,74,74,78,82,82,82,80,79,80,80,79,79,78,80,82,80,80,83,85,86,88,88,91,95,98,100,100,98,98,96,95,94,92,91,90,90,90,88,87,87,85,84,84,83,84,86,89,89,88,88,88,87,86,86,85,86,87,86,85,84,84,84,83,83,86,86,85,84,82,81,80,78,76,75,74,73,72,71,70,69,69,68,68,67,66,65,64,63,62,61,60,60,59,58,58,57,56,56,61,69,73,74,80,82,81,79,77,76,75,74,72,71,70,69,67,67,66,65,64,62,61,61,60,58,58,58,57,56,55,54,54,53,52,52,51,50,50,50,50,49,48,47,47,46,47,48,48,47,47,46,45,44,44,44,42,42,41,42,41,42,41,40,39,39,39,38,37,37,36,35,35,36,35,34,35,34,33,33,33,33,32,32,32,31,31,31,32,31,30,30,30,30,29,30,29,28,29,29,29,29,29,28,28,28,28,28,27,27,26,26,26,26,26,26,25,25,25,25,25,25,24,25,24,24,24,25,25,24,24,24,24,25,24,24,23,24,23,25,26,27,26,27,26,26,27,27,26,26,25,26,25,26,26,26,26,25,25,26,26,26,26,25,25,24,26,26,25,25,25,25,25,25,26,25,25,24,24,24,25,24,25,24,24,23,24,23,24,24,23,24,23,24,23,23,23,23,23,23,22,22,23,22,22,22,22,22,23,23,23,22,22,22,22,22,22,22,21,21,21,21,21,22,21,21,21,21,20,21,21,20,21,19,19,20,20,20,20,21,21,21,20,21,20,20,20,19,20,20,20,17,17,18,18,18,17,17,17,17,17,18,17,17,17,18,19,18,18,18,17,18,18,18,18,18,18,17,17,17,18,18,17,17,17,17,17
81,81,81,80,83,82,82,82,81,81,82,82,82,83,82,82,82,81,83,85,85,85,84,85,85,86,85,85,85,84,84,84,86,84,83,83,83,84,83,83,83,82,83,82,82,84,85,85,85,85,84,85,84,84,83,84,84,84,84,84,84,84,83,83,82,83,83,83,84,83,83,83,84,85,86,85,85,84,83,84,85,84,83,82,82,81,84,84,86,85,84,84,84,86,87,87,86,86,86,85,86,86,85,85,84,84,85,85,85,84,84,84,83,84,85,88,87,87,86,86,86,86,87,86,86,85,85,84,86,87,87,86,86,86,86,87,86,85,85,85,85,85,87,86,86,86,86,85,86,86,86,85,85,85,84,86,87,86,86,86,86,86,86,85,86,85,85,85,85,86,87,86,86,85,85,84,84,84,84,83,83,82,84,85,84,84,83,83,82,83,83,83,83,82,82,81,83,83,83,84,83,82,83,85,85,85,84,83,83,83,84,85,85,85,84,84,84,85,85,85,84,84,83,82,84,83,83,83,83,83,83,83,83,83,82,83,81,82,83,82,82,82,81,80,80,82,81,81,81,81,81,82,83,83,82,82,82,83,82,82,82,82,82,82,82,82,84,83,82,82,83,83,83,83,83,83,83,83,84,85,86,85,85,84,84,84,83,83,83,83,84,98,114,123,125,135,158,166,164,164,169,179,202,219,223,246,263,271,290,291,298,312,314,333,376,409,412,433,449,449,448,455,470,478,486,489,514,520,520,528,547,541,545,559,552,549,550,541,533,534,532,541,548,546,545,539,552,563,560,555,577,582,586,578,567,561,559,556,572,594,614,606,607,600,605,600,592,590,581,572,571,576,569,562,567,600,609,651,675,677,672,674,666,694,754,757,773,791,777,765,763,758,764,763,761,751,754,757,765,762,767,759,755,772,771,777,776,763,775,796,802,798,787,773,776,800,797,809,799,785,770,766,765,754,752,746,746,738,737,738,753,745,744,736,737,745,760,770,778,771,767,761,752,750,757,754,749,740,756,770,769,768,767,760,751,741,754,788,806,800,797,787,777,768,758,748,755,759,800,812,805,828,824,826,851,852,865,857,850,845,838,826,834,838,830,828,826,817,817,811,817,813,817,827,824,824,816,826,835,836,845,834,824,813,806,807,797,792,784,782,779,806,824,816,816,811,806,816,821,812,807,793,783,774,770,763,757,748,742,742,736,726,720,718,712,704,712,718,731,721,710,712,706,699,693,690,701,698,687,682,681,683,679,676,667,655,646,638,640,630,622,620,611,607,603,602,598,599,592,586,577,567,559,554,551,547,541,534,527,521,515,509,502,495,488,480,472,469,465,459,454,450,450,446,443,437,431,424,418,413,410,408,402,395,389,384,382,379,373,368,361,356,351,349,347,342,337,333,328,324,319,318,315,310,307,304,302,301,299,296,292,288,285,281,279,275,271,266,263,259,257,255,253,249,246,242,239,238,235,231,227,224,220,219,219,215,213,209,206,205,205,202,199,196,194,191,192,191,190,187,184,184,182,180,178,177,174,171,169,169,169,169,166,165,163,161,161,161,159,157,154,154,152,153,154,153,151,149,148,146,146,145,143,142,140,139,139,141,140,139,138,136,135,135,135,134,133,132,132,131,132,133,131,130,129,129,128,129,129,127,126,125,123,125,128,128,126,126,125,125,127,126,125,124,123,122,122,124,126,125,125,124,124,125,126,124,123,122,122,123,124,126,124,123,122,122,122,122,121,121,119,119,118,118,121,121,121,119,119,119,119,119,118,117,116,115,115,117,116,117,116,116,116,116,116,115,114,113,113,114,115,117,116,115,113,112,113,113,112,111,110,109,109,110,112,112,111,111,111,110,111,111,110,109,108,107,107,108,108,108,106,105,106,106,107,105,105,104,103,103,104,105,103,103,102,102,101,103,103,102,101,100,100,100,102,100,100,99,98,99,100,101,99,98,98,98,98,98,98,98,97,97,98,99,100,100,99,97,96,96,97,98,97,96,96,95,95,96,96,96,95,94,94,92,94,94,94,94,93,93,93,94,94,93,93,93,91,92,93,93,92,92,92,90,90,90,90,89,89,89,88,89,90,90,90,90,90,89,90,90,89,90,90,90,89,90,91,91,91,91,91,91,89,90,89,90,89,89,89,89,90,90,90,90,90,90,90,90,89,90,89,89,89,89,89,93,92,92,91,92,92,92,93,92,94,93,94,93,92,93,93,93,93,92,93,94,95,95,95,94,94,94,94,93,93,93,93,93,93,95,96
