17,17,17,17,16,17,17,17,17,17,18,18,17,17,18,17,17,17,16,16,16,16,17,17,17,16,17,16,17,17,17,16,16,16,16,16,17,16,17,17,16,17,16,17,16,16,16,15,16,17,16,17,16,17,16,16,17,17,16,16,16,16,17,17,17,18,17,16,16,16,16,17,17,16,17,16,16,17,17,16,17,16,17,16,16,17,17,16,16,17,17,17,17,17,17,17,17,16,17,16,16,17,16,16,17,17,17,16,16,16,17,16,16,16,16,16,17,16,17,17,16,16,17,16,16,17,16,16,16,16,16,16,16,17,16,16,15,15,16,16,16,16,15,16,16,16,16,16,16,16,15,15,16,15,16,16,16,15,16,16,16,16,16,16,16,16,16,16,17,16,16,16,16,16,16,16,16,17,17,17,16,17,16,17,17,16,16,17,17,17,17,16,16,16,16,16,16,16,16,16,16,16,16,16,16,16,16,16,16,16,16,16,16,16,16,16,17,16,17,16,16,17,16,16,16,16,17,17,17,17,17,17,16,17,16,17,17,17,17,16,16,17,17,17,17,17,17,16,17,17,17,17,16,17,17,17,18,18,17,17,17,17,17,17,17,17,16,17,16,17,16,17,16,17,16,16,16,16,16,17,17,16,16,16,16,17,16,16,16,16,16,15,15,16,15,15,16,16,15,15,16,15,16,16,16,16,16,16,15,16,16,17,16,16,15,16,16,17,16,16,16,15,16,15,15,16,16,15,16,16,16,16,15,16,16,16,16,16,16,16,16,16,16,16,16,16,16,16,15,15,16,16,17,16,16,16,16,16,17,17,16,16,16,16,15,16,16,15,16,16,15,16,15,16,16,15,16,16,16,16,16,16,16,16,16,16,16,16,16,16,16,16,16,17,16,16,16,16,16,15,16,16,15,15,16,16,16,16,17,16,17,16,16,17,16,16,16,17,16,16,16,16,17,17,16,16,17,16,16,17,16,16,16,17,16,16,16,16,16,16,16,16,16,16,16,16,16,17,17,17,16,17,17,16,16,17,16,16,17,17,16,16,17,16,16,16,16,17,17,17,17,16,16,16,16,17,16,16,16,17,16,16,16,16,16,16,17,16,16,16,17,17,17,17,17,17,16,16,16,16,16,17,16,17,17,17,17,17,17,17,17,17,17,17,17,17,17,17,17,17,17,17,17,17,17,17,17,17,18,18,17,17,17,18,17,17,17,17,17,18,17,18,17,17,17,17,18,18,18,18,18,18,18,17,18,18,18,18,18,18,18,18,18,18,18,18,18,18,18,18,18,18,18,18,18,18,17,17,18,18,17,18,18,17,17,18,18,18,19,18,18,18,17,17,18,18,18,18,17,18,18,18,18,18,17,18,17,17,17,17,17,17,17,18,17,18,17,18,17,18,18,18,18,18,18,17,17,18,18,18,18,18,18,17,17,18,17,17,17,17,17,18,18,17,18,18,17,17,17,18,17,18,17,17,18,17,17,18,17,18,17,17,17,17,18,17,17,17,18,18,18,18,18,18,18,18,18,18,18,18,18,18,18,18,18,18,18,19,18,17,17,17,17,17,18,18,17,18,17,18,17,18,18,18,17,17,18,17,17,18,18,17,18,17,17,17,18,17,18,18,18,17,17,17,17,17,18,18,17,17,18,17,18,17,18,18,18,18,18,18,18,18,18,17,18,19,18,18,18,18,18,18,19,19,18,19,19,18,19,18,18,19,19,19,19,19,19,20,19,19,19,19,19,19,20,19,20,19,19,19,19,19,20,19,19,19,19,19,19,20,20,20,19,19,19,20,20,19,19,20,20,20,20,20,19,20,20,21,20,21,20,20,20,20,21,20,20,20,20,20,20,20,19,20,19,19,20,20,19,19,20,20,20,19,20,20,20,20,20,20,20,20,20,19,20,19,19,19,19,19,19,20,19,19,19,19,19,20,20,20,20,19,20,20,20,20,19,20,21,20,20,20,20,20,20,20,20,20,20,20,20,20,20,21,20,20,20,19,20,20,20,20,20,20,20,20,20,20,20,20,20,20,19,19,19,20,19,20,20,20,20,19,20,20,20,20,19,20,19,20,19,19,20,19,19,19,19,19,19,19,19,18,19,19,19,19,19,19,19,19,19,19,19,20,19,19,20,20,20,20,19,20,20,20,20,20,20,20,20,21,21,20,20,20,20,20,20,20,20,20,20,20,20,21,20,20,21,20,20,20,20,21,20,21,21,20,20,21,20,20,20,20,21,20,20,32,32,32,32,32,32
90,91,90,90,89,88,88,88,90,89,89,89,87,87,87,87,87,87,86,86,86,88,87,87,86,85,85,86,86,86,85,85,84,84,84,85,87,86,86,86,86,85,86,85,85,85,84,84,85,87,86,86,86,85,86,86,86,85,85,84,84,84,84,86,85,85,84,84,84,84,84,83,83,82,81,82,84,84,84,84,83,83,84,84,83,85,84,84,83,85,88,88,87,87,87,87,87,88,86,87,86,87,86,86,87,88,88,89,88,87,88,88,87,87,87,85,87,86,88,87,87,87,86,86,86,87,86,86,86,85,86,87,86,86,87,85,85,86,87,86,85,85,84,84,84,86,87,86,86,84,85,85,87,87,86,87,87,87,88,90,89,88,89,88,88,88,87,86,86,86,85,86,86,87,86,87,86,86,85,86,85,84,84,83,83,84,85,85,84,85,83,83,83,83,84,84,83,82,83,83,86,85,84,84,84,83,83,83,83,82,81,81,81,82,83,83,83,83,82,82,84,85,85,85,85,85,85,86,89,88,88,87,86,86,86,87,87,86,86,85,86,89,89,89,88,87,87,87,88,88,88,87,87,86,87,89,89,88,88,88,87,88,89,87,88,87,86,87,87,87,86,85,85,86,86,86,86,86,86,85,85,84,86,89,88,88,89,88,88,89,88,88,87,88,88,87,89,89,88,88,88,88,88,90,90,89,88,88,87,88,90,89,89,88,88,88,89,90,89,88,88,87,87,89,89,89,89,89,88,87,88,89,89,87,87,87,86,87,89,87,87,86,86,87,86,86,85,84,84,84,85,85,86,86,85,84,84,85,86,85,85,85,84,83,84,85,84,84,84,83,83,83,84,84,83,82,82,82,84,86,87,87,87,86,87,88,88,87,86,87,86,86,86,88,87,87,86,86,86,87,87,85,85,85,85,86,88,89,90,90,89,89,89,90,89,89,89,88,87,88,90,90,89,89,87,86,86,88,86,85,86,86,84,86,86,86,85,85,85,84,84,85,84,83,83,83,83,84,85,85,85,85,85,84,85,85,85,85,83,84,83,87,87,86,85,85,85,86,87,86,86,86,86,86,88,88,88,88,87,86,86,87,87,88,87,86,86,86,87,89,88,88,88,88,87,87,88,88,88,87,88,87,88,90,90,89,88,87,88,88,88,87,87,86,86,87,88,88,87,87,87,87,88,88,88,87,86,86,85,86,88,87,86,86,85,86,87,88,87,87,86,86,86,86,88,87,86,86,86,85,85,87,86,86,86,85,85,86,87,87,87,85,85,86,86,87,87,87,86,85,86,88,89,89,88,88,88,87,88,87,87,87,86,85,86,89,91,91,89,89,88,89,91,90,90,89,89,88,89,90,90,89,88,88,87,87,88,88,87,88,87,88,88,90,90,91,90,90,91,92,93,92,91,90,90,90,92,95,94,93,93,93,93,93,93,92,92,91,92,92,95,95,94,94,93,93,94,94,94,93,93,92,92,93,96,96,96,94,94,94,95,96,95,94,94,95,94,95,98,100,99,98,98,99,99,99,99,98,97,97,97,98,98,97,97,96,95,97,97,96,95,95,94,95,95,97,97,96,96,96,95,95,94,94,93,93,92,91,92,94,93,93,93,92,91,91,91,92,91,90,89,89,89,89,89,88,87,88,88,89,89,89,89,88,88,88,90,90,89,88,88,88,88,87,87,86,86,85,85,86,88,87,87,87,86,85,87,87,86,86,85,85,85,85,86,86,84,85,84,84,85,86,86,85,84,84,83,84,85,86,85,84,84,84,84,84,84,83,82,83,83,85,86,85,85,85,84,85,87,88,87,86,86,85,86,87,88,88,87,87,86,86,86,87,86,86,85,85,85,87,87,87,86,85,86,87,89,88,88,87,86,86,87,89,88,87,86,86,87,87,88,87,85,86,85,86,87,87,87,87,86,85,86,88,87,87,86,86,86,86,86,86,86,85,84,84,85,84,84,83,83,82,82,83,85,85,84,84,84,84,85,87,86,86,85,84,85,85,87,87,87,86,85,86,86,86,86,85,85,84,85,86,87,87,86,86,86,87,86,87,86,86,85,85,86,86,89,87,87,86,86,86,86,86,86,85,85,85,85,87,87,87,86,86,86,86,86,86,85,85,85,84,86,88,87,88,87,87,87,88,87,87,87,87,86,86,87,89,88,87,88,87,88,88,88,87,87,86,85,86,87,86,86,86,86,85,87,89,88,87,86,86,86,87,88,88,88,88,88,88,88,90,90,89,89,90,89,89,90,91,91
32,32,33,32,32,32,32,32,32,32,33,32,31,31,31,31,32,32,31,31,31,31,31,31,31,31,30,30,30,31,31,31,32,31,31,31,31,31,32,31,32,31,32,31,31,31,31,31,31,31,31,31,31,31,30,31,31,31,31,32,31,31,31,32,31,32,30,31,32,31,31,31,31,31,31,31,31,31,31,30,30,31,31,31,31,31,30,30,30,31,31,30,30,30,30,30,30,31,31,30,30,31,30,30,30,30,31,30,30,30,30,31,31,30,30,30,31,30,31,30,30,30,30,31,30,31,31,31,30,31,31,31,31,30,31,31,31,31,32,31,31,31,32,31,31,32,31,31,32,32,32,32,33,32,31,32,32,32,32,33,32,32,33,32,33,33,33,32,32,33,33,33,32,32,33,33,32,32,33,33,33,33,32,33,33,33,33,33,32,33,34,33,33,33,33,32,33,33,33,33,33,33,32,33,33,33,33,33,33,33,33,33,33,33,32,32,32,32,32,32,32,32,32,32,32,31,32,32,32,31,32,31,31,31,31,32,31,31,31,31,31,31,30,30,30,30,32,31,32,30,30,31,31,31,31,32,31,31,31,31,31,31,31,30,30,31,31,30,30,30,31,30,30,31,31,30,30,30,31,31,31,31,31,30,31,30,31,31,30,30,30,31,30,31,31,31,31,32,31,32,32,32,32,31,31,32,32,32,32,31,32,32,32,32,32,31,32,32,33,33,32,32,32,32,33,33,32,32,32,32,32,32,32,32,32,32,32,31,31,31,32,32,31,31,31,31,31,31,31,31,31,31,31,31,31,31,31,31,30,30,30,31,31,31,30,30,30,31,31,31,30,30,30,30,30,31,30,30,30,31,30,32,31,31,31,30,30,30,31,32,30,30,31,30,30,30,31,30,30,29,30,30,30,30,29,29,29,29,29,30,29,29,29,28,29,29,29,29,29,28,29,29,29,28,28,29,28,28,29,29,29,29,28,29,28,28,28,28,29,29,28,28,29,28,28,28,28,27,28,28,29,29,28,28,28,29,28,28,29,28,28,28,28,28,29,29,29,28,28,28,29,29,29,29,29,29,29,29,29,29,29,29,29,28,29,29,29,28,28,29,29,29,29,29,29,29,29,29,30,29,29,28,28,29,29,29,29,29,28,28,29,30,29,28,28,29,28,28,28,28,28,28,27,27,27,27,27,27,27,27,27,26,26,27,26,26,26,27,26,26,27,26,25,26,25,25,25,25,25,25,25,25,25,25,25,24,25,25,25,25,25,24,24,25,25,25,25,25,25,24,24,25,25,25,24,24,25,25,24,25,25,25,25,24,24,24,24,24,24,24,25,25,24,25,25,25,25,25,25,26,25,25,25,25,25,25,25,25,24,25,24,24,25,24,25,24,24,25,24,24,24,24,24,24,25,24,24,25,25,25,24,24,25,24,25,24,24,24,24,24,24,25,24,25,24,24,24,24,24,24,23,23,24,25,23,24,24,25,24,25,24,24,24,24,24,24,23,23,24,23,24,23,24,24,23,23,24,24,24,24,24,23,24,24,24,24,24,23,23,24,23,23,23,23,24,24,24,23,23,23,24,23,23,23,24,23,23,24,24,23,23,24,25,24,24,24,24,24,23,23,24,23,23,24,23,24,23,24,23,23,22,23,22,23,23,22,23,22,22,23,22,22,23,22,23,23,22,22,23,23,23,23,23,23,23,22,23,23,22,22,23,22,22,23,22,23,23,23,23,23,23,22,22,22,22,22,22,22,22,22,23,22,22,22,23,22,22,22,22,22,22,22,23,23,23,21,22,21,22,23,22,22,22,22,22,22,22,22,22,22,22,22,22,22,22,22,22,22,22,22,22,22,22,21,22,21,22,21,21,22,21,21,22,21,21,22,21,21,21,21,21,21,21,22,21,21,21,21,21,21,20,20,21,20,21,20,20,20,20,20,21,20,20,20,20,19,20,20,20,20,19,20,20,20,20,20,20,19,21,20,20,21,19,20,19,21,20,20,20,20,21,21,21,20,20,20,20,21,20,20,20,21,20,20,21,21,21,21,21,20,21,21,20,21,20,20,21,20,20,20,20,21,20,21,20,21,21,20,21,20,21,20,20,21,21,21,20,20,20,20,21,20,20,20,20,20,20,20,20,20,20,20,20,20,20,20,20,20,20,20,20,20,19,20,19,19,19,19,20,19,20,19,20,20,20,20,20,20,20,20,21,20,20,21,19,20,20,20,19,20,20,20,20,19,19,19,19,18,19,19,19
91,91,90,89,88,91,92,94,93,93,93,95,96,97,96,95,94,94,95,98,97,96,98,96,97,98,99,99,98,98,98,97,98,100,101,101,100,101,100,101,100,100,99,98,97,98,100,101,100,100,99,100,100,101,101,100,99,98,98,98,100,100,99,99,98,98,99,100,99,100,100,99,100,101,102,100,100,99,99,100,101,103,102,102,100,100,101,104,105,104,103,103,103,103,103,103,102,101,101,101,102,102,102,100,101,100,100,101,100,99,98,98,98,101,102,101,101,100,100,101,103,102,101,100,100,101,101,105,104,104,103,102,102,102,103,102,101,100,101,101,103,102,102,101,100,101,101,102,101,101,100,99,99,100,101,99,98,98,98,99,99,99,98,98,98,97,99,100,100,100,99,100,100,101,100,99,100,99,99,98,99,100,100,99,98,97,98,98,98,98,96,96,95,95,97,98,97,96,95,95,95,95,95,95,94,94,94,94,97,97,97,97,97,96,98,99,99,98,97,96,96,97,97,96,96,95,96,97,99,99,99,98,99,98,98,101,102,102,101,100,101,102,103,102,102,101,100,99,101,103,103,102,101,101,102,102,103,103,102,102,101,103,104,106,105,104,103,103,103,105,105,103,103,102,102,103,104,104,103,102,102,101,102,102,101,100,100,100,100,103,102,101,101,101,100,100,101,101,101,99,99,100,101,102,101,101,100,100,101,101,100,99,98,98,97,99,100,99,98,97,97,97,97,97,97,96,96,94,94,96,96,95,94,94,94,94,96,95,93,93,92,91,92,93,93,92,91,91,91,92,92,91,91,90,90,89,91,93,93,92,92,91,93,93,93,92,92,91,91,90,92,94,92,91,92,90,91,91,92,91,92,91,90,92,92,93,92,92,91,91,93,94,94,94,93,93,92,92,94,93,93,92,92,93,92,93,93,92,92,91,91,92,93,93,92,92,92,93,95,94,93,92,92,92,92,94,95,95,94,93,93,93,95,95,94,93,93,93,93,94,96,95,94,93,93,93,94,94,92,92,92,91,92,94,93,94,92,92,92,93,94,94,93,92,91,91,91,94,93,92,91,91,90,90,90,89,88,87,87,88,89,92,91,90,90,89,91,92,91,91,91,91,90,91,92,94,94,93,92,93,93,94,94,94,92,91,91,92,94,96,96,95,95,94,96,97,96,96,96,95,95,96,97,96,96,95,95,96,96,97,97,96,96,96,96,98,98,98,97,97,96,97,100,100,100,99,98,98,100,101,102,101,101,101,100,102,104,104,102,102,102,103,103,105,105,104,104,103,104,105,104,104,103,103,102,102,104,103,102,102,103,103,104,106,105,105,104,104,104,106,106,105,105,105,106,106,107,108,107,106,106,106,108,110,110,109,109,108,109,109,109,108,108,107,106,108,109,109,107,108,107,108,108,108,108,107,107,105,107,108,108,108,107,107,106,107,107,107,107,106,105,105,108,109,109,108,108,107,108,109,108,107,107,106,105,106,108,108,107,107,108,108,109,111,110,109,109,107,108,111,111,109,108,108,108,108,109,109,108,108,108,107,109,110,109,109,108,108,110,111,111,109,108,108,108,110,111,112,112,113,113,113,113,113,112,112,111,111,112,113,114,114,113,113,112,113,113,113,112,112,110,111,113,114,113,111,111,111,111,113,113,113,113,112,113,114,116,115,115,114,114,115,115,115,115,114,113,112,113,114,115,115,115,114,115,117,117,117,117,116,115,116,117,119,118,117,117,117,117,118,118,118,118,117,117,119,119,119,117,117,117,117,117,115,116,115,113,113,114,115,117,115,115,115,115,115,116,116,115,114,113,114,116,117,116,116,115,114,115,115,114,114,114,114,113,116,117,117,116,117,116,117,116,117,115,114,114,113,114,115,115,114,114,114,115,116,117,117,116,115,114,114,116,116,116,115,114,113,116,117,116,115,115,114,114,115,117,119,117,117,116,117,117,118,117,116,115,114,114,117,118,118,117,117,117,116,117,116,115,115,114,113,115,115,115,114,113,112,113,115,114,115,114,114,113,114,116,116,115,114,113,114,115,116,115,114,113,113,113,115,117,115,114,114,115,115,115,115,115,113,112,113,115,117,118,118,117,117,118,118,118,117,116,114,114,114,115,114,114,113,114,114,114,115,114,113,113,112,112,113,114,112,111,111,109,110,111,110,110,109,108,108,109,111,110,109,108,107,109,110,111,109,109,108,107,108,110,109,109,108,108,110,111,110,110,109,108,107,108,109,108,109,108,171,170,170,170,171,172,171,170
26,26,26,26,26,26,26,27,27,26,26,26,26,27,27,27,26,27,26,26,26,27,26,26,26,26,26,27,26,26,27,27,26,27,27,26,26,26,26,26,26,27,27,26,26,27,27,27,27,26,27,26,26,26,27,26,27,26,27,27,27,27,27,27,27,26,26,26,26,26,26,26,27,26,26,26,27,26,26,26,26,26,27,26,26,26,26,26,26,26,26,26,26,26,26,26,26,26,26,26,26,26,26,27,27,27,26,26,26,27,27,26,27,26,27,27,27,27,27,26,26,26,26,26,27,26,26,26,26,26,26,27,26,26,26,27,26,26,26,26,26,26,26,26,26,26,26,26,27,26,27,27,26,26,27,26,26,26,26,26,26,25,25,25,25,26,26,25,26,26,26,26,27,25,26,26,25,26,26,26,26,26,26,26,26,26,26,26,27,25,26,26,26,27,26,26,26,26,27,26,26,26,25,25,26,26,26,26,26,26,26,26,27,27,27,26,26,26,26,26,27,27,27,26,27,27,27,26,27,26,26,26,27,27,26,26,26,26,27,26,27,27,26,26,26,26,27,27,26,26,26,26,26,26,27,27,27,26,26,26,26,26,27,27,26,28,26,26,27,26,27,26,26,26,26,26,26,26,26,26,26,27,27,27,26,26,26,26,27,27,27,27,27,26,27,27,26,26,27,26,26,26,26,26,26,26,26,26,26,27,26,26,26,26,27,26,26,26,26,26,27,26,27,26,26,27,26,26,26,26,26,26,27,26,26,26,27,26,26,27,26,26,26,25,26,26,26,26,26,25,26,26,26,26,25,26,26,26,26,25,25,26,25,27,26,26,26,26,26,26,27,26,26,26,26,27,27,26,26,27,26,26,25,26,26,26,26,26,26,26,27,26,26,26,26,26,25,25,26,26,25,26,26,25,26,26,26,26,25,26,25,25,26,27,26,25,26,25,25,25,25,25,25,25,25,25,25,25,25,25,25,26,25,25,26,25,25,25,25,26,25,25,25,25,26,26,26,27,25,26,25,26,25,26,26,25,25,26,26,26,26,26,27,26,25,25,26,26,26,25,25,25,26,26,26,26,26,27,27,26,27,27,26,26,26,27,26,27,27,28,27,26,27,27,27,28,28,27,27,28,27,28,28,27,27,27,27,27,28,28,28,27,27,27,27,27,27,27,27,27,26,27,27,26,27,26,27,27,27,28,27,27,27,27,26,27,27,27,26,26,27,27,27,27,27,27,26,26,26,26,26,26,26,26,26,26,26,26,26,26,27,25,26,26,26,26,26,25,26,26,26,26,26,25,25,25,25,25,25,25,25,25,25,25,26,25,25,24,24,25,25,25,24,25,25,24,26,25,24,25,25,24,25,25,24,24,24,24,25,24,24,24,24,24,24,24,24,24,24,24,24,24,25,25,24,24,24,24,25,24,24,24,24,23,24,24,24,24,24,24,24,24,24,24,23,24,24,24,24,24,24,25,24,24,24,24,24,23,24,23,24,23,23,24,23,24,25,24,24,24,23,23,23,23,23,23,23,23,23,23,23,23,23,23,23,23,23,23,23,23,22,23,23,23,23,23,23,23,23,23,23,24,23,23,23,23,23,25,24,24,24,23,23,24,24,24,24,24,23,23,23,23,24,23,24,23,24,24,24,24,24,23,25,24,25,25,24,24,24,24,24,24,24,24,23,23,24,24,25,25,24,23,24,24,23,24,24,24,23,23,24,24,23,24,24,23,24,24,24,24,25,23,24,24,24,24,24,24,24,24,23,23,23,24,24,23,23,24,24,24,24,24,23,23,24,23,24,23,24,24,23,24,24,23,24,24,24,23,24,24,23,24,23,24,24,24,24,24,24,24,24,24,24,24,24,24,25,24,24,24,25,23,24,24,23,23,23,23,23,23,23,24,23,24,23,24,23,24,23,23,22,23,24,23,23,23,23,23,23,23,24,23,23,23,23,23,22,23,22,23,23,23,23,24,24,23,23,23,23,23,23,23,23,23,24,24,24,23,24,24,24,24,24,24,24,24,24,24,24,24,24,25,24,24,25,24,24,25,24,24,24,23,24,23,24,24,24,24,23,23,23,23,24,24,23,23,24,24,24,24,24,24,24,25,24,24,24,24,24,24,25,25,25,26,25,25,24,25,25,24,24,24,24,24,25,24,25,23,23,23,24,24,25,25,25,24,24,24,25,24,25,24,24,24,23,24,24,24,24,25,25,24,24,24,24,24,24,24,24,30,30,31,30,30,30,31,30,29,30,30,31
54,55,55,54,55,55,55,55,55,55,56,56,56,55,56,56,55,55,56,56,56,56,56,57,55,56,57,57,57,56,57,56,57,56,57,56,57,56,57,56,57,57,57,57,57,57,57,57,57,57,57,56,57,56,57,57,57,57,57,57,57,57,58,57,57,57,57,58,57,57,57,58,57,57,57,57,57,57,57,57,57,57,57,57,57,57,57,57,57,57,57,57,57,57,57,57,57,57,57,57,57,57,57,56,57,57,56,56,57,56,57,57,57,56,57,57,57,56,57,57,56,56,56,57,57,56,56,56,56,56,56,56,56,56,57,56,55,56,56,56,56,55,56,55,56,56,56,55,56,56,56,55,55,55,56,56,56,56,56,55,55,55,55,55,55,55,55,55,55,55,55,55,55,55,55,55,55,55,55,54,55,55,54,54,54,54,55,55,54,54,55,54,55,55,55,55,54,54,55,54,54,54,55,54,54,54,54,54,54,54,55,54,54,54,54,54,54,54,54,54,54,54,54,54,54,54,54,54,55,54,54,54,54,54,54,54,54,54,54,54,54,54,54,54,54,54,54,54,53,54,54,54,54,54,54,54,55,54,54,54,54,54,55,54,54,54,54,54,54,54,54,55,54,54,54,55,54,54,55,54,55,55,54,55,55,55,54,55,54,55,55,54,55,55,55,54,55,55,55,55,55,55,56,55,55,54,55,55,55,56,55,55,55,55,55,55,55,55,55,56,56,55,55,56,56,56,56,56,56,56,55,55,56,56,56,56,56,57,56,56,56,56,56,56,56,56,57,57,56,57,58,57,57,57,57,57,57,57,57,57,57,57,57,57,57,57,57,58,57,57,58,58,57,57,57,57,58,57,58,58,57,58,58,58,58,58,58,58,58,59,59,58,58,58,58,58,58,58,59,58,59,58,58,58,58,58,59,58,59,59,59,58,59,58,59,58,59,59,58,59,59,58,59,59,59,59,59,59,59,59,59,59,59,59,59,59,59,59,59,59,59,59,59,59,59,59,59,59,59,59,59,59,59,59,59,59,59,60,59,59,59,60,61,62,62,62,62,62,61,62,62,61,61,61,62,62,62,60,61,61,61,60,61,61,60,61,60,60,60,61,60,60,61,60,61,61,61,61,60,60,60,60,60,61,60,60,60,60,60,59,60,60,61,59,59,60,60,60,60,60,60,60,60,59,60,60,60,60,60,59,59,60,60,60,60,60,60,60,59,59,59,60,60,60,60,59,60,60,59,59,59,59,59,60,60,60,59,60,59,59,59,60,59,59,59,60,60,59,59,59,59,60,59,60,60,59,59,59,59,59,59,60,59,59,59,59,60,59,60,59,60,59,59,60,60,59,59,59,59,60,59,60,60,60,59,59,59,59,60,59,59,59,59,60,60,59,60,60,59,59,59,60,59,60,60,60,60,59,60,60,60,59,60,60,60,60,59,60,60,59,60,60,59,60,59,60,60,59,60,60,60,60,60,60,61,60,61,61,60,60,60,60,60,60,60,60,60,60,60,61,60,60,60,60,60,60,60,60,60,61,60,60,60,61,61,60,60,60,60,60,60,60,60,60,60,60,60,60,61,60,61,60,60,59,60,60,60,61,61,61,61,60,60,60,60,60,60,60,61,60,60,60,60,60,60,60,60,61,60,60,61,60,60,60,60,60,60,60,61,60,61,61,61,61,60,61,61,60,60,61,60,60,61,61,60,60,60,61,60,60,61,60,61,60,60,61,60,60,60,61,60,60,60,60,60,60,60,60,60,60,61,60,60,59,60,60,60,60,60,60,59,60,59,60,59,60,60,60,60,60,60,60,60,59,60,60,60,60,60,60,60,60,60,59,60,60,60,60,59,60,59,60,60,60,60,59,60,60,60,60,60,61,61,60,60,60,60,60,60,60,60,60,60,60,60,60,61,60,61,60,60,60,60,59,60,60,60,60,60,60,60,60,59,59,60,60,60,60,60,60,59,60,60,60,60,60,60,60,60,60,60,61,61,60,60,60,60,60,59,60,61,60,61,60,60,60,61,60,60,60,60,60,61,60,61,60,60,60,60,60,61,61,61,61,61,60,61,61,61,61,61,60,61,60,60,61,60,60,60,61,60,61,60,61,60,60,60,60,60,60,60,60,60,61,60,61,60,60,60,61,60,60,60,61,60,60,60,61,60,60,60,61,60,60,60,60,60,60,60,60,61,60,60,60,60,60,60,60,60,60,60,60,60,60,59,60,61,60,60,54,53,53,53,54,54,54,54,54,54,55,55
30,30,31,30,30,30,32,31,30,30,30,30,30,30,30,30,30,30,31,30,31,31,30,30,30,30,30,32,30,31,30,31,31,31,31,31,30,30,30,31,31,31,30,31,31,31,31,31,31,30,30,31,31,31,31,30,30,32,30,32,31,30,30,30,30,30,31,31,31,31,30,30,31,30,31,30,30,31,30,31,30,30,30,31,31,30,31,30,31,30,31,29,31,31,30,30,31,30,31,30,30,31,30,30,31,30,30,30,30,30,30,31,30,30,30,31,30,30,30,30,30,31,30,30,30,30,30,31,30,30,31,31,30,30,30,31,31,31,31,30,31,32,31,32,31,31,31,31,32,31,32,32,32,31,32,32,32,32,32,31,31,32,32,32,32,32,32,32,32,32,32,32,32,31,32,32,33,32,32,32,32,32,32,32,33,32,33,32,32,32,33,33,33,33,33,33,32,33,32,33,32,31,32,32,32,32,33,32,32,31,32,32,32,32,31,32,32,32,32,32,32,32,32,32,32,32,32,31,31,31,31,32,31,32,32,31,31,31,31,31,31,31,32,31,31,31,32,31,31,31,31,31,31,31,31,31,30,31,30,31,31,31,30,31,30,30,31,30,29,30,30,29,30,30,30,30,29,30,29,29,29,30,29,29,29,29,28,29,28,28,28,28,29,28,29,28,28,28,29,28,28,28,28,28,28,27,28,28,28,27,28,28,28,28,28,28,28,27,27,28,28,28,27,27,28,27,28,28,28,28,28,28,28,28,29,28,28,28,28,27,27,28,28,28,28,27,27,27,27,28,28,27,27,28,27,27,28,27,28,27,28,28,28,28,27,27,27,27,27,27,27,27,27,26,26,26,26,27,27,26,26,27,26,26,26,27,26,27,26,26,27,26,26,26,26,26,27,27,27,26,27,26,26,26,27,27,26,26,26,26,27,27,26,27,26,26,26,26,27,26,26,26,26,26,26,27,27,26,27,26,27,27,26,26,26,27,26,26,26,26,26,26,26,27,27,27,27,26,26,27,26,27,28,27,27,27,27,26,27,27,27,27,27,27,27,27,26,27,27,27,27,27,27,27,27,26,26,26,27,27,28,28,27,27,27,27,27,28,28,27,28,28,28,28,28,28,28,28,28,28,28,29,28,28,29,29,28,29,29,28,28,29,29,29,29,29,28,28,27,28,28,28,28,28,28,27,28,29,29,28,28,28,28,28,28,28,29,28,29,27,27,28,28,28,28,28,28,28,28,28,28,27,28,27,27,27,28,28,28,28,28,28,29,28,28,27,27,28,28,27,28,28,27,27,28,28,28,28,28,28,28,28,27,28,27,27,27,28,27,28,27,28,28,28,27,28,27,28,27,27,27,26,27,27,27,27,26,26,27,27,27,27,27,26,27,27,27,27,27,26,27,26,27,27,26,27,26,26,26,27,27,26,26,26,26,27,27,26,26,27,26,25,26,26,26,26,26,26,25,25,25,26,26,25,25,25,25,25,26,25,25,25,25,25,25,25,25,25,24,26,25,24,24,24,24,25,24,24,24,24,24,24,24,24,23,23,23,23,23,23,24,23,23,24,23,23,23,23,22,23,23,23,23,23,23,22,23,23,22,24,23,23,23,24,23,24,24,23,23,23,23,24,23,23,24,23,23,23,24,23,24,24,24,24,25,24,25,24,24,24,23,23,23,23,23,24,24,24,24,23,22,23,23,23,23,23,22,23,22,23,22,22,23,22,22,22,22,22,22,23,22,21,22,22,22,22,22,21,21,21,22,21,21,22,22,21,21,22,22,22,22,21,22,22,22,22,21,22,22,21,22,22,22,22,22,21,21,21,22,21,21,22,21,21,21,22,21,21,21,21,21,21,22,22,22,22,22,23,22,22,23,22,23,22,21,22,23,22,22,23,23,22,23,22,22,21,23,22,22,22,22,22,22,21,22,22,22,23,23,23,22,22,22,22,22,22,23,22,23,23,23,24,23,23,23,22,23,23,24,23,22,23,23,23,23,23,23,22,23,22,22,23,23,23,22,23,23,23,22,23,22,22,22,22,22,22,22,22,22,22,23,22,22,22,22,22,23,23,22,21,23,23,22,22,22,22,23,22,22,22,22,23,22,22,22,22,22,22,22,22,22,22,22,22,22,22,22,21,22,21,21,22,21,22,22,21,21,21,21,21,21,21,21,21,21,22,21,21,21,21,21,21,20,21,21,21,21,21,22,21,21,22,21,21,21,21,21,18,18,18,18,18,18,18,18,18,18,18,18,19,18
55,55,55,55,55,55,55,55,55,55,56,55,57,55,56,55,57,56,57,57,56,56,56,56,57,56,57,57,57,57,58,57,58,57,57,57,57,57,58,58,58,58,58,58,57,58,58,58,58,58,58,58,58,58,58,58,58,58,58,58,58,59,58,59,58,58,58,58,58,58,58,58,58,58,58,58,58,58,59,58,58,58,58,58,58,58,59,58,58,58,58,58,58,58,58,58,58,58,58,58,58,58,58,58,58,58,58,58,58,58,58,58,58,58,58,58,57,58,57,58,58,58,58,58,58,57,57,57,57,57,57,57,57,57,57,57,57,57,57,57,57,57,57,58,58,59,58,58,58,58,58,59,58,58,59,58,59,58,58,58,58,58,58,57,58,57,58,58,58,58,58,57,57,57,57,57,57,58,57,57,58,57,57,57,58,57,57,57,57,57,57,57,57,57,56,57,57,57,57,56,56,56,56,57,56,56,56,56,56,56,56,56,56,55,56,56,56,56,55,56,56,56,56,55,56,56,56,56,56,55,56,55,55,55,55,55,56,55,55,55,55,54,55,56,55,56,55,55,55,54,54,54,55,55,55,54,55,55,54,54,54,54,54,54,54,55,54,54,54,54,54,54,55,54,55,54,54,54,55,54,54,54,55,54,54,54,54,54,54,55,54,54,54,54,54,54,55,54,55,54,55,54,54,54,54,54,54,54,54,54,54,54,55,54,54,54,54,54,54,54,54,54,54,54,54,54,54,54,55,54,54,54,55,54,55,54,54,54,54,55,54,54,54,55,54,54,54,54,54,55,54,54,54,54,54,54,54,55,54,55,55,54,54,54,54,54,54,54,54,54,54,54,54,54,54,54,54,54,54,54,54,54,54,54,54,54,54,54,55,54,54,54,54,54,55,55,54,54,54,55,54,54,55,54,54,54,54,54,55,55,55,55,55,54,55,55,54,55,55,54,55,55,55,55,55,55,55,55,55,55,55,55,56,56,55,55,55,55,55,55,55,56,56,55,56,55,55,56,55,56,56,56,56,56,56,55,55,55,55,56,55,56,56,55,56,55,56,55,56,56,56,56,56,56,56,56,56,55,56,55,56,55,55,56,56,56,57,57,57,57,57,57,57,57,57,57,57,58,57,58,57,58,57,57,58,57,58,57,58,58,57,58,58,57,58,57,58,57,57,57,57,58,57,57,57,57,57,57,57,57,57,57,57,58,58,56,57,57,57,57,57,57,57,57,57,58,57,57,57,57,56,56,57,56,56,56,57,57,57,57,56,57,57,56,57,56,56,56,56,56,56,56,56,56,56,56,56,56,57,56,56,56,56,56,56,56,57,56,56,56,57,56,56,56,56,56,56,56,56,56,56,56,56,56,56,56,56,56,56,56,57,56,56,56,57,56,56,56,56,56,56,56,56,57,56,56,56,56,56,56,56,56,56,57,56,57,56,56,56,56,56,56,57,56,56,56,56,56,56,56,56,56,56,56,56,56,57,56,56,56,57,57,57,56,56,56,56,56,56,57,57,56,57,56,56,56,56,56,56,56,56,56,57,56,57,56,57,56,56,56,57,56,57,57,57,57,57,57,57,57,57,57,57,57,57,57,57,57,57,57,57,57,56,57,56,57,57,57,57,57,57,57,57,58,57,58,57,57,57,57,57,57,57,57,57,57,57,57,57,57,57,57,57,57,58,57,57,57,57,57,58,57,57,57,57,57,58,57,57,57,57,57,57,57,58,58,57,58,58,57,58,57,57,57,57,58,58,57,57,58,58,57,57,58,57,57,57,58,57,57,57,57,58,57,57,57,57,57,57,57,57,57,57,57,58,57,57,57,57,57,57,57,57,57,57,57,57,57,57,57,57,58,58,58,58,58,59,59,60,60,60,59,59,59,60,60,60,60,60,60,60,60,60,60,59,60,60,60,61,60,61,60,61,61,61,61,61,61,61,61,61,61,61,61,61,61,61,60,61,61,61,61,61,61,59,60,61,60,60,60,60,60,60,60,60,60,60,60,60,59,59,60,60,59,59,59,59,59,59,58,59,59,59,58,58,59,58,58,59,59,59,58,58,58,58,58,58,58,58,58,59,57,58,57,58,57,58,58,57,57,58,57,57,58,57,57,58,57,57,57,57,57,57,57,57,57,57,57,57,57,57,57,57,57,57,57,57,57,57,57,57,57,57,57,56,57,57,57,57,57,56,56,57,56,57,57,57,56,57,56,58,56,56,56,58,57,56,53,53,53,53,54,53,54,54,54,54,54,54,55,55
18,18,18,18,18,18,19,18,17,18,18,17,18,18,18,18,18,17,18,17,17,17,17,17,17,17,17,17,18,18,17,17,17,18,17,17,17,17,18,17,17,18,18,18,18,18,17,17,17,18,17,17,17,18,19,19,19,18,18,18,18,18,18,18,18,19,18,18,18,18,18,18,18,18,18,18,18,17,17,17,17,17,17,18,17,17,17,17,17,18,17,17,17,18,17,17,18,17,17,17,17,17,17,17,18,18,18,17,17,18,19,19,18,19,18,18,18,19,18,18,19,19,18,19,19,19,19,19,19,19,19,18,18,18,19,18,18,19,19,19,19,19,19,18,18,18,18,18,19,19,19,19,19,20,19,19,19,19,19,19,19,19,19,18,18,19,19,18,19,19,19,18,18,18,18,19,18,19,19,19,19,19,19,19,19,19,19,19,19,19,18,19,19,19,19,20,19,19,19,19,19,19,19,19,19,19,19,20,19,20,19,19,20,19,20,20,19,19,19,19,20,20,20,21,20,20,20,20,20,20,20,20,20,19,20,20,19,20,20,20,20,19,20,20,20,19,19,20,19,20,19,20,19,20,20,19,19,19,20,19,20,19,19,19,19,19,19,18,19,19,19,18,18,18,18,19,19,19,19,19,19,19,19,19,19,19,19,18,19,19,20,20,19,19,19,19,19,19,19,18,18,19,19,18,18,18,18,18,18,19,18,19,18,19,18,18,19,18,18,18,18,18,18,18,17,17,17,17,17,18,18,17,18,18,19,17,18,18,18,18,18,18,18,17,17,18,18,17,17,18,17,18,18,17,18,17,18,17,17,17,17,17,17,17,17,18,17,17,18,18,17,18,18,18,19,18,17,17,18,17,17,17,17,17,17,17,17,17,17,17,17,18,17,17,17,17,17,17,17,17,17,17,18,17,17,18,17,16,17,17,17,17,17,17,18,18,17,17,16,17,17,17,17,17,17,17,17,17,17,17,17,17,17,17,17,16,16,16,17,17,17,17,17,16,17,17,17,17,17,17,17,17,17,17,17,17,16,17,17,17,17,17,16,17,17,17,17,17,17,17,17,18,17,17,17,17,17,17,17,17,17,17,17,17,17,17,17,17,17,17,17,16,17,17,17,17,17,17,17,17,17,17,17,17,16,16,17,17,16,17,16,17,17,17,17,17,17,17,17,16,16,17,18,17,17,17,17,17,17,17,17,17,17,17,16,16,17,17,17,18,17,17,17,17,18,17,17,17,17,17,16,17,17,17,17,16,17,17,17,16,16,16,17,16,16,16,16,17,15,16,16,17,17,16,16,16,17,16,17,17,17,17,17,17,16,16,17,16,17,16,17,18,18,17,17,17,17,17,18,18,17,17,17,17,17,17,17,18,17,17,18,17,17,18,17,17,17,17,17,18,18,18,18,18,18,18,17,18,18,18,18,18,18,19,18,18,18,18,18,18,19,18,19,18,18,18,19,19,19,20,19,20,19,19,19,19,20,19,19,20,20,20,20,20,20,20,20,19,19,19,19,19,19,19,20,19,18,19,19,19,18,19,18,19,19,18,18,19,19,19,19,19,18,18,18,19,18,18,19,18,18,20,18,18,18,18,19,19,19,19,19,19,18,18,18,19,19,19,19,19,18,19,18,18,18,19,18,19,19,19,19,19,18,19,18,18,18,18,19,18,18,17,18,18,18,18,17,18,17,18,18,17,17,17,16,17,17,18,18,17,18,17,17,17,17,18,17,17,18,17,18,18,19,18,18,19,18,19,19,18,18,18,18,19,18,19,18,19,18,18,18,18,18,18,18,18,18,20,19,20,19,19,19,19,19,18,19,18,19,18,19,19,19,18,18,19,19,19,19,18,19,19,19,18,18,19,19,19,18,19,19,19,19,18,19,18,18,18,19,19,18,19,18,18,19,18,18,18,18,18,18,18,19,18,18,19,18,18,17,18,18,18,18,18,18,18,18,18,19,18,18,18,17,18,18,18,18,18,18,18,19,19,18,19,19,18,18,19,18,18,18,18,19,18,19,19,18,19,18,19,19,19,18,19,19,18,19,19,18,18,19,19,18,19,18,18,18,18,18,18,18,19,19,19,19,19,19,19,19,19,19,19,19,19,19,19,19,19,20,19,19,19,19,19,19,19,19,20,19,20,19,19,20,19,19,19,19,19,19,19,19,19,18,19,18,20,19,19,19,19,19,19,18,18,19,19,19,19,19,19,19,18,18,19,19,19,18,18,18,18,18,18,18,18,18,18,18,18,18,18,18
55,55,55,56,56,55,56,55,55,56,56,56,57,56,56,57,57,57,57,56,56,57,57,58,57,57,57,57,57,58,58,57,58,58,58,58,58,58,58,58,58,58,58,58,58,58,58,58,58,58,58,58,58,58,58,57,58,58,58,58,58,58,59,58,58,58,58,58,58,58,59,58,58,58,58,59,59,59,59,58,58,58,58,58,59,59,59,58,58,58,58,58,59,59,59,58,59,58,58,58,58,58,58,58,58,58,58,58,58,58,58,58,58,58,58,58,58,58,58,58,58,58,58,57,58,58,58,57,57,57,58,58,57,57,57,57,57,57,58,57,57,57,57,57,57,57,57,57,57,58,57,57,58,57,57,57,57,57,57,56,57,56,57,56,57,56,57,56,56,56,57,56,56,56,57,56,56,57,57,56,56,56,56,56,56,56,55,56,55,57,56,56,57,55,56,55,56,56,56,56,55,55,55,55,55,55,55,56,56,56,56,56,55,56,56,55,57,56,56,55,56,56,55,56,56,56,56,56,56,55,56,55,56,56,55,56,56,55,56,56,55,56,56,55,55,55,55,55,55,55,55,55,55,55,55,55,54,55,55,54,55,55,55,55,55,54,54,54,54,55,54,54,54,54,54,54,54,54,54,54,54,54,54,55,55,54,54,54,54,54,54,54,55,54,54,55,54,54,55,54,54,54,55,54,54,54,54,55,54,54,55,54,54,54,54,54,55,54,54,54,54,54,55,54,54,54,54,54,54,54,54,54,54,54,55,55,54,54,55,54,55,54,54,54,54,54,54,54,54,55,55,55,55,55,54,54,54,54,54,54,54,54,55,54,55,55,54,54,54,54,54,54,54,54,54,54,54,54,55,55,54,54,55,55,54,54,54,55,55,56,55,55,56,56,56,56,55,56,56,55,56,56,56,56,56,56,56,56,56,56,56,57,56,56,57,56,56,56,56,56,56,56,56,56,56,56,56,57,56,56,56,56,56,56,56,56,56,56,56,56,56,55,57,55,56,56,56,57,56,56,56,56,56,56,57,55,55,56,56,56,56,56,56,56,55,55,57,55,56,55,56,55,55,56,56,56,56,56,56,56,55,56,55,56,56,56,56,56,56,56,56,56,56,57,56,56,56,55,56,56,56,56,56,56,56,56,55,55,56,56,55,56,56,57,56,56,56,56,56,56,57,56,56,57,56,56,57,57,58,58,58,58,59,59,58,58,58,58,58,58,58,58,58,58,59,58,58,57,57,58,58,58,57,57,57,58,57,58,57,57,58,57,57,57,58,58,57,57,58,58,57,58,57,58,57,57,57,57,57,57,57,58,57,57,57,57,57,57,57,57,57,57,57,57,58,57,57,58,58,57,57,57,57,57,57,57,57,57,57,58,58,57,57,57,56,57,57,57,57,57,57,57,57,57,57,56,58,57,57,57,56,57,57,57,57,57,57,57,57,57,57,57,57,56,57,57,58,57,57,57,57,58,57,57,57,57,57,57,57,57,57,57,57,57,57,58,57,57,57,57,57,57,57,56,57,56,57,57,56,57,57,56,57,57,56,57,57,56,58,58,57,57,57,57,57,57,57,56,57,57,57,57,56,57,57,57,57,56,58,56,56,57,56,57,56,56,57,56,58,57,56,56,57,57,57,56,57,57,58,57,56,57,57,57,57,58,57,57,57,57,57,57,57,57,57,57,57,57,57,56,57,57,57,57,57,57,57,57,57,57,57,57,58,57,57,57,58,57,58,57,57,57,57,57,57,57,57,57,58,57,58,57,57,57,57,57,57,57,58,58,58,57,58,57,57,57,57,57,57,58,57,57,58,57,57,57,58,58,57,57,58,57,58,57,57,58,57,58,58,58,57,58,57,57,57,58,58,57,58,58,58,58,58,57,57,57,57,57,58,57,58,58,57,57,58,57,57,58,58,57,58,57,57,58,57,58,58,57,58,58,57,58,58,57,59,57,57,57,57,57,58,57,57,58,58,57,58,57,57,58,58,58,58,57,58,57,58,57,57,57,58,58,57,58,58,57,57,57,58,58,58,58,57,58,58,57,57,58,58,57,58,58,58,58,58,57,58,58,58,58,58,58,58,58,58,58,58,58,58,58,58,58,58,58,58,59,58,58,58,58,58,58,58,58,58,58,58,58,58,58,59,58,58,58,58,58,58,58,58,58,59,58,58,58,58,58,58,59,59,58,59,58,58,58,58,58,59,58,59,58,57,58,58,58,58,54,53,53,54,54,54,54,54,54,55,54,55,55,55,55,55
19,18,18,18,17,17,17,17,17,18,17,18,18,18,17,17,17,17,17,17,17,17,17,17,17,17,17,17,18,18,17,17,17,17,17,17,17,17,17,17,17,18,17,19,18,17,18,17,18,18,18,17,18,18,18,19,18,18,18,19,18,18,18,18,18,19,18,19,18,18,19,18,19,18,18,19,19,18,18,19,19,19,19,18,19,19,18,19,18,19,18,19,18,19,19,19,19,19,19,18,19,19,19,19,19,19,18,19,19,19,18,19,19,19,19,19,19,19,19,20,20,20,20,20,19,19,20,19,19,19,19,19,19,19,20,19,19,19,19,20,19,19,19,19,19,19,19,19,19,19,19,19,19,19,19,18,19,19,18,18,18,18,18,19,19,19,19,19,19,18,18,19,19,18,19,18,18,19,19,19,19,18,18,19,18,18,18,18,19,18,19,18,18,18,18,18,19,18,18,18,18,18,19,18,19,19,19,18,19,18,19,19,19,19,18,18,18,19,19,19,19,19,19,19,18,18,18,19,18,18,18,18,19,18,19,19,18,19,18,18,18,18,18,18,18,18,18,18,18,18,18,19,18,18,18,18,18,18,18,19,18,19,19,19,18,19,18,19,19,18,18,18,19,19,19,18,19,18,18,18,17,17,18,17,18,17,18,19,18,18,18,19,18,19,18,18,19,18,18,18,18,18,18,18,18,18,18,18,18,18,18,19,18,18,18,18,19,18,19,19,19,19,19,19,19,19,19,19,19,19,19,19,19,19,19,19,19,19,20,19,20,19,19,19,19,19,19,19,19,19,19,19,19,19,18,19,19,19,19,20,19,19,19,18,19,19,19,19,19,20,19,19,19,19,19,19,18,18,18,18,18,18,19,19,19,19,19,18,18,18,20,18,19,19,19,18,18,18,18,19,19,19,18,19,19,19,19,19,19,18,18,19,18,19,19,19,19,18,19,18,18,18,19,18,19,18,19,19,18,18,18,18,18,18,18,18,18,19,19,19,19,19,19,18,19,18,19,19,19,19,19,19,19,19,19,19,19,19,19,19,19,19,19,19,19,20,20,19,20,19,18,19,19,19,19,19,20,19,20,20,19,19,19,20,20,19,19,19,19,20,20,19,19,20,19,19,20,20,19,19,19,19,19,19,20,20,19,20,20,20,20,20,20,20,20,19,20,20,20,19,19,20,19,20,20,19,19,20,19,19,19,20,20,19,19,19,19,19,19,19,19,19,19,19,19,19,18,19,19,19,20,19,19,19,19,19,18,19,19,18,19,19,20,20,19,19,19,19,19,19,18,19,19,19,19,19,19,19,19,20,19,19,19,19,19,19,19,19,19,20,20,20,20,20,20,20,19,19,20,19,19,20,20,19,19,20,19,19,19,19,19,19,19,19,19,19,18,19,19,19,19,19,19,19,19,19,19,19,19,19,19,19,19,19,19,19,19,19,19,19,18,18,18,18,19,19,19,19,19,20,19,19,19,19,20,19,20,20,20,20,20,20,20,19,19,19,19,19,19,19,20,19,20,20,20,20,20,19,19,20,19,19,19,19,20,19,20,19,19,19,18,19,18,19,18,19,19,19,19,19,20,20,20,20,19,19,19,19,19,19,20,20,19,20,19,19,19,20,20,19,20,20,20,20,20,20,20,20,20,20,20,20,19,20,20,20,20,19,19,20,20,20,20,19,21,20,20,19,20,19,19,19,20,19,20,20,19,20,19,20,20,20,19,19,19,19,19,19,20,19,20,20,20,19,19,19,19,19,19,19,19,19,19,20,20,20,20,20,19,19,20,19,20,20,19,19,20,20,20,20,19,20,20,20,20,20,19,19,19,20,20,20,19,20,20,19,20,20,19,19,19,19,19,19,19,20,20,19,19,18,19,18,19,19,19,19,19,19,19,20,19,19,19,19,19,18,19,18,18,18,19,19,19,19,18,18,18,19,18,18,18,18,19,19,18,18,18,18,18,18,17,18,18,18,18,17,18,18,19,19,19,19,19,19,19,18,19,19,19,19,20,19,19,19,20,20,19,19,19,20,20,19,20,20,19,19,19,19,19,19,20,19,20,19,20,20,20,20,19,19,20,20,19,19,19,20,20,19,19,20,20,19,19,20,20,20,20,20,19,20,20,20,19,19,19,19,20,19,19,20,20,20,19,19,19,19,19,19,19,19,19,20,20,20,20,20,20,20,19,19,19,19,19,19,19,19,20,19,20,19,19,19,19,17,18,18,17,17,17,17,18,17,18,17,17,17,17,18,18,17,18
55,56,56,55,55,57,56,56,56,56,56,56,56,56,56,56,56,57,57,56,57,58,57,57,57,57,57,57,57,57,57,57,58,57,57,57,58,57,58,57,58,58,59,58,58,58,58,58,58,58,58,57,58,58,58,58,58,57,57,58,58,57,57,59,58,58,59,58,58,57,58,59,58,58,58,58,58,57,57,58,58,58,58,57,57,58,57,58,57,57,57,58,58,57,58,57,57,57,58,57,58,58,57,57,58,57,57,58,57,57,57,57,57,57,58,57,58,57,57,57,57,57,57,56,57,57,56,57,58,58,57,57,57,56,56,57,57,56,56,57,56,57,56,57,56,56,56,56,57,56,56,56,57,56,56,56,56,56,56,56,56,57,56,56,57,56,57,56,56,56,56,56,56,56,55,56,56,56,56,56,55,56,56,55,56,55,56,56,56,56,56,56,55,56,56,55,55,56,56,56,57,57,56,56,56,57,57,56,56,57,56,56,58,56,56,56,56,56,57,57,57,57,56,57,57,56,57,56,57,56,56,57,56,56,57,56,56,57,56,56,56,56,56,56,56,56,56,55,56,55,55,56,56,56,55,56,56,55,56,55,56,55,55,56,55,55,55,55,55,55,55,55,55,55,54,55,55,55,55,55,54,54,55,55,55,55,54,55,55,54,55,55,55,54,55,54,55,54,55,55,55,54,55,55,54,54,54,54,54,54,55,55,54,54,54,54,54,54,54,54,54,54,54,54,53,54,54,54,54,54,54,54,54,54,54,54,54,55,54,55,54,55,54,54,54,54,54,54,54,54,54,54,54,54,54,54,54,54,53,53,54,54,54,54,54,53,53,54,54,54,54,54,54,54,54,55,54,54,54,53,54,54,54,54,54,54,54,54,54,53,54,54,55,54,54,54,54,54,54,54,54,54,54,54,54,55,54,54,54,54,54,54,54,55,54,54,54,54,54,55,54,55,55,54,55,54,55,54,54,55,54,54,55,55,55,54,54,54,55,54,55,54,54,54,54,55,54,55,54,54,54,55,55,54,54,54,54,54,55,55,55,55,55,55,55,55,55,55,54,55,54,55,55,55,55,55,55,54,54,54,55,54,55,55,55,55,55,55,55,55,55,55,55,55,56,55,56,56,56,56,55,55,55,55,55,56,55,55,55,55,55,55,55,55,55,55,55,55,56,56,56,55,55,55,56,55,55,55,55,55,55,56,55,55,55,55,56,55,56,55,56,55,56,56,56,56,55,55,56,55,56,56,55,56,56,56,55,55,56,56,56,55,55,55,56,56,57,56,55,55,56,56,55,56,56,56,56,56,56,55,56,55,57,56,56,56,56,55,56,56,56,56,56,56,56,56,57,56,56,56,56,56,56,56,57,56,56,57,56,56,56,56,57,56,56,56,56,56,57,56,56,56,57,57,56,57,56,56,57,56,57,57,57,57,57,57,57,57,57,57,56,57,57,57,57,56,57,56,57,57,58,57,57,57,57,57,56,57,56,57,56,57,57,56,57,56,57,58,57,57,56,56,57,56,57,57,56,57,57,57,57,57,57,57,56,56,56,57,57,56,56,57,57,56,56,57,57,57,56,56,56,57,56,56,57,56,56,57,56,56,57,56,56,57,56,56,56,56,56,56,57,57,57,56,57,56,57,56,57,56,57,56,56,56,56,56,57,56,56,57,56,57,57,57,56,56,56,56,57,56,57,57,57,57,57,57,57,57,58,58,57,57,57,57,57,57,57,57,57,57,57,57,57,57,57,57,58,57,58,57,57,57,57,57,57,57,57,57,57,57,57,57,57,57,58,57,57,57,57,57,57,57,57,57,57,57,58,57,57,57,57,57,58,58,57,57,57,57,58,57,57,57,57,57,58,57,57,57,57,57,57,58,57,57,57,57,58,57,57,57,57,57,57,58,57,57,57,57,58,57,57,57,57,58,57,57,57,57,57,58,58,57,58,57,58,57,57,58,58,57,57,58,58,57,57,57,58,57,57,58,57,57,58,57,57,58,58,58,58,59,59,60,60,60,61,60,61,60,60,61,61,60,61,60,60,60,60,61,61,61,61,60,61,61,60,60,61,61,61,61,60,60,61,61,60,60,61,61,60,60,60,60,60,60,60,60,60,59,60,60,60,60,59,59,59,59,59,59,59,59,59,59,59,59,58,59,59,58,58,59,59,58,58,58,58,58,58,58,58,58,59,58,58,59,58,58,58,58,58,57,59,57,58,54,54,54,54,54,55,54,54,55,55,55,56,55,56,56,55,56,56
17,17,17,17,17,17,17,17,17,17,17,17,17,18,17,17,17,18,18,18,17,17,17,17,19,18,18,17,18,17,18,17,18,17,17,17,17,18,18,18,18,18,17,17,17,17,17,17,17,17,17,18,18,18,18,18,18,17,17,18,17,17,17,17,17,18,17,17,17,17,17,17,17,18,17,17,16,17,17,19,18,19,18,18,18,19,19,19,19,19,19,19,18,19,18,19,19,18,19,19,18,18,18,18,18,18,19,20,19,19,18,19,19,19,19,19,19,19,18,18,20,20,19,19,19,19,19,20,20,19,19,19,19,20,20,20,19,20,20,20,20,19,20,20,20,19,19,20,20,20,19,19,19,19,20,19,19,19,18,18,19,19,20,19,19,19,18,19,19,19,19,18,18,18,18,19,18,18,18,18,18,18,17,18,18,17,17,17,17,17,18,18,17,17,18,18,18,17,18,17,18,17,17,18,18,18,17,17,18,18,18,18,17,17,17,18,18,19,18,18,18,17,18,18,19,18,18,18,18,18,19,19,19,19,18,19,18,17,18,18,18,18,18,18,18,19,18,18,17,18,18,18,18,17,17,17,17,17,18,17,18,17,17,17,17,18,17,17,17,16,17,17,18,18,19,17,17,17,18,18,18,18,17,17,17,18,18,18,18,19,18,18,18,18,18,18,18,17,18,19,19,19,19,18,18,19,18,18,18,19,18,18,19,19,19,18,18,18,19,19,18,18,18,18,18,18,20,20,19,20,19,19,19,19,20,19,19,19,19,19,19,19,19,19,19,19,19,18,18,18,18,18,18,18,19,19,18,19,18,18,18,18,18,18,18,19,18,19,19,19,19,18,18,19,18,18,19,18,18,17,18,18,19,19,18,18,19,18,19,20,19,19,18,18,18,19,20,20,19,20,19,20,20,20,19,20,19,19,20,19,20,20,19,19,19,19,20,20,19,19,19,18,20,21,20,21,20,19,20,21,21,20,20,20,20,19,20,20,20,20,20,19,20,21,21,20,20,20,20,21,21,22,21,21,20,21,21,22,22,21,22,21,21,22,22,22,21,21,21,21,21,21,21,21,21,20,21,21,22,21,21,21,21,21,22,22,21,22,22,21,21,22,21,21,20,21,21,21,22,22,22,21,22,21,22,22,23,22,21,21,21,21,22,22,21,21,21,21,22,22,22,21,22,22,21,22,21,22,21,21,20,20,21,23,21,21,21,21,22,22,22,22,21,21,21,21,21,22,21,21,21,21,21,21,21,20,20,20,20,20,22,22,21,21,22,21,20,22,21,21,21,20,21,21,21,21,21,21,21,21,21,21,20,20,20,20,20,21,20,20,20,20,20,20,21,21,21,20,20,19,20,20,21,21,21,20,20,20,20,20,20,20,19,20,20,20,20,20,20,20,20,20,20,20,19,19,19,19,19,20,21,20,19,19,19,19,21,21,19,20,19,19,20,20,20,20,19,19,19,19,20,19,19,19,19,19,20,21,21,20,20,20,20,21,22,21,21,20,21,21,21,21,21,21,20,20,20,21,21,21,21,21,21,21,21,21,20,20,20,20,20,20,20,20,20,19,19,20,21,20,21,21,20,21,21,20,20,20,20,19,20,20,21,21,20,21,19,20,21,20,20,20,19,19,19,20,20,21,20,20,19,20,20,20,20,20,19,20,20,21,21,21,21,20,20,20,20,20,20,19,19,20,21,20,20,20,20,19,19,19,20,20,19,19,19,19,19,21,20,19,19,19,19,20,19,19,19,19,19,20,19,19,19,20,19,19,19,19,19,19,19,18,19,19,20,20,20,19,20,20,19,19,19,20,19,19,18,19,21,19,20,20,19,20,20,20,20,19,19,19,20,20,20,20,19,20,19,20,21,20,20,20,20,19,19,20,20,20,20,20,20,20,20,20,20,19,19,19,20,19,21,21,21,20,20,21,20,21,20,20,20,20,21,21,22,21,20,21,20,21,22,21,21,21,20,20,21,22,22,22,22,22,23,23,23,23,22,21,21,22,22,22,22,22,21,21,21,21,21,21,21,21,20,21,21,21,21,21,21,21,21,22,21,21,20,20,20,21,21,21,22,21,21,22,21,22,21,21,21,21,21,21,22,22,21,21,21,21,21,21,21,21,20,20,21,21,20,20,21,20,20,19,20,21,20,20,20,20,20,22,21,20,21,21,20,21,21,20,20,20,19,20,21,20,20,20,20,20,20,19,20,18,19,20,19,19,19,19,18,19,19,19,19,19,19,19,19,19,20,19,19
56,56,57,55,56,56,56,56,56,56,56,57,56,56,57,58,56,56,57,57,56,57,56,57,57,57,57,56,56,57,57,57,57,57,57,57,57,58,57,57,57,57,58,57,57,57,57,57,57,57,57,57,57,57,58,58,57,57,57,58,57,58,57,58,58,57,58,58,57,58,57,58,58,57,58,57,57,57,58,57,58,58,58,58,58,57,58,58,58,58,58,58,57,58,58,58,57,57,58,58,57,57,58,58,58,58,58,58,58,57,58,58,57,57,57,58,57,57,58,58,57,57,59,58,58,58,58,58,58,58,58,57,57,57,57,58,57,57,58,57,57,57,58,57,57,57,57,57,58,57,57,57,57,57,57,58,58,57,57,57,57,57,57,57,57,57,57,56,56,56,57,56,57,56,57,56,56,57,56,56,57,57,56,56,56,56,56,56,56,56,56,56,56,56,56,55,56,55,56,56,56,55,55,56,55,55,55,55,55,55,56,55,55,55,55,55,56,55,55,55,56,55,56,58,60,61,63,64,66,67,69,70,71,72,72,72,73,73,74,73,75,74,74,75,77,76,77,77,76,76,76,75,75,75,75,74,74,75,74,73,73,73,73,72,71,71,71,71,70,70,71,71,70,69,69,69,69,68,69,68,68,67,68,67,67,67,66,66,66,66,66,66,65,65,65,65,65,65,64,64,64,64,64,63,63,63,63,63,63,63,63,62,62,62,63,62,62,63,62,62,61,61,61,61,60,62,61,61,61,61,62,61,61,60,61,60,60,60,59,60,60,60,60,59,59,59,59,58,58,59,58,58,59,60,60,61,60,61,61,61,61,61,61,61,60,61,61,61,61,61,60,61,61,60,61,60,60,60,60,60,61,61,61,61,61,61,62,62,63,63,64,63,63,63,64,63,63,63,63,63,63,62,63,63,62,62,62,62,62,61,62,61,62,61,61,61,61,61,61,61,61,61,61,60,60,60,60,60,60,59,60,60,60,59,59,60,59,59,59,59,59,59,59,59,59,59,58,58,59,59,59,59,59,58,58,58,58,58,58,58,58,58,58,58,57,58,57,58,57,57,57,57,57,57,57,57,57,57,57,57,57,57,57,57,56,56,57,56,56,56,56,56,56,56,56,57,56,57,57,56,57,56,56,56,56,55,57,55,55,55,56,55,56,55,56,56,56,56,55,56,55,56,55,55,56,55,55,55,55,55,55,55,55,55,56,55,55,54,55,55,55,55,55,55,54,55,54,55,55,55,55,55,55,54,55,55,54,55,55,55,55,54,54,54,55,54,54,54,54,54,55,54,54,54,53,54,55,54,54,54,55,55,56,55,56,56,56,56,56,57,57,56,57,57,57,56,57,57,57,57,57,56,57,57,57,57,57,57,57,57,57,57,57,57,56,57,57,57,57,57,57,57,57,57,56,57,57,57,56,56,56,56,57,56,56,56,56,57,56,56,56,56,56,56,55,56,55,55,55,56,56,55,55,55,55,55,56,56,55,55,56,55,54,55,55,56,55,55,54,55,54,55,55,55,55,55,55,54,55,55,55,55,54,55,54,54,54,55,54,54,55,55,55,54,54,54,54,54,54,54,54,54,54,54,54,55,53,54,54,54,54,53,54,54,54,53,54,54,54,53,54,54,54,54,54,53,54,54,54,54,54,54,54,54,54,54,54,54,54,54,54,54,53,53,54,54,54,54,54,54,54,54,54,54,53,53,54,54,54,54,54,53,54,54,54,54,53,54,54,54,54,53,54,54,54,55,53,53,54,54,54,54,53,54,53,54,55,54,54,54,54,54,54,54,54,54,54,54,54,54,53,54,54,53,54,54,53,53,54,54,54,54,54,55,54,54,54,54,54,54,54,54,54,54,54,55,54,54,53,55,54,54,53,54,54,54,54,54,55,54,55,54,54,54,55,54,54,54,54,54,54,54,54,54,54,54,55,55,54,55,55,55,55,55,54,55,54,55,54,55,55,55,55,55,55,55,55,55,55,55,55,55,56,56,55,55,55,55,55,55,55,55,55,55,55,55,55,55,55,55,55,55,56,55,55,55,56,56,55,56,55,55,55,56,56,56,55,56,56,56,56,56,56,55,56,55,56,56,56,56,56,55,56,56,56,56,56,56,56,56,56,56,55,56,56,55,56,56,56,56,56,56,56,56,56,56,56,56,55,56,57,57,57,57,57,57,58,57,58,57,58,57,57,58,58,58,58,57,59,58,58,55,55,55,55,55,56,56,56,56,56,55,56,56,57,56,56,57,57,56,57
19,19,19,19,19,19,19,19,20,20,20,19,20,20,20,19,19,18,19,19,19,19,19,19,19,19,19,18,19,19,19,19,20,19,20,19,19,19,20,19,19,19,19,18,19,19,19,19,19,20,19,20,20,20,19,19,19,19,19,19,20,20,20,20,19,20,19,19,19,19,19,19,19,19,19,19,19,20,19,19,20,19,20,19,19,19,19,19,20,19,20,20,20,20,19,19,19,19,19,19,19,19,19,19,19,19,19,20,19,19,19,19,19,19,19,19,19,19,19,19,19,20,19,20,19,19,19,19,19,19,20,20,20,20,20,19,20,20,19,20,19,19,19,19,19,19,19,20,18,19,19,19,19,19,19,19,19,19,19,19,19,18,19,19,19,19,18,19,19,18,19,18,18,18,19,18,18,19,19,18,19,18,18,18,19,18,18,19,19,18,18,18,18,18,18,19,19,19,19,18,19,19,19,20,20,19,19,19,19,19,19,19,19,20,19,20,19,20,20,20,20,20,19,20,20,20,19,20,20,20,20,20,19,20,20,20,19,20,19,20,20,20,20,21,21,21,20,20,20,20,20,20,19,20,20,20,20,20,20,21,20,20,20,20,20,20,21,21,21,21,20,21,21,20,21,21,20,20,21,20,20,21,21,21,21,21,20,20,20,20,20,20,21,20,20,20,20,21,20,20,20,21,20,20,20,20,20,20,20,20,20,20,20,21,20,20,20,21,21,20,20,21,20,20,21,21,21,21,22,20,20,20,20,21,21,20,21,20,21,21,21,21,20,20,21,21,20,19,20,20,19,19,20,20,20,20,20,20,20,20,21,20,20,20,20,21,20,20,20,20,20,20,21,21,20,19,20,20,20,20,20,20,20,20,20,20,20,20,20,20,20,19,20,19,19,20,20,20,19,19,19,19,20,20,20,20,20,20,20,20,20,20,20,19,20,20,19,19,20,20,20,20,20,20,20,19,20,19,20,19,19,20,19,20,19,19,20,20,19,20,20,19,19,20,19,20,19,19,19,19,19,19,19,19,19,18,19,18,19,18,18,19,19,19,19,19,19,19,19,19,18,19,19,19,19,19,19,18,19,19,19,18,18,19,18,18,19,19,19,19,18,19,19,19,19,19,18,19,18,19,19,19,18,19,19,18,19,19,19,19,19,19,18,19,19,19,19,19,20,19,20,20,20,20,20,19,19,20,20,20,20,20,20,20,20,19,20,20,20,20,19,20,20,20,20,20,20,20,20,20,19,20,19,21,20,20,20,20,19,20,20,19,20,21,20,20,19,20,19,20,19,19,20,19,19,20,20,20,20,20,20,20,20,20,19,20,20,20,20,20,20,20,20,20,19,20,21,20,20,20,20,20,21,20,21,20,21,20,20,21,20,20,20,19,20,20,21,21,21,20,21,20,21,21,21,21,21,21,21,22,22,21,21,21,21,21,21,21,21,21,21,22,21,22,21,22,22,22,21,21,22,22,22,23,22,22,22,22,22,22,21,22,22,22,21,22,21,22,22,22,22,22,22,22,22,22,23,22,22,22,22,23,23,22,23,22,23,22,23,22,22,22,22,22,22,22,23,23,22,22,22,23,22,22,22,23,22,23,23,22,22,22,23,22,22,22,22,22,22,22,23,22,22,22,22,22,22,22,22,22,22,22,22,22,22,23,22,22,22,22,22,22,22,22,21,22,22,21,21,21,21,21,21,21,22,21,21,21,21,22,21,22,22,21,23,22,22,22,21,22,21,22,22,22,23,22,22,21,22,22,22,22,23,22,22,22,22,22,22,22,22,22,23,22,22,22,22,22,22,22,23,22,22,22,23,22,22,22,22,22,22,23,21,22,22,22,23,22,23,23,23,22,22,23,22,22,23,22,22,22,22,22,22,23,22,22,22,22,21,22,22,22,22,22,22,23,22,22,22,23,23,22,22,22,22,23,23,22,22,23,23,22,22,23,23,23,22,22,22,22,22,23,22,23,22,23,23,23,23,22,22,23,23,23,23,23,23,23,23,22,22,22,23,23,23,22,22,22,22,23,23,22,23,22,23,23,23,22,22,23,22,23,23,23,23,23,23,23,23,23,23,23,22,23,23,23,23,24,23,23,24,23,23,23,23,24,23,23,23,23,24,24,24,24,24,24,25,25,25,25,24,24,24,24,25,25,24,25,25,25,25,25,25,24,25,25,24,24,24,24,24,24,24,24,23,23,24,23,24,19,19,19,19,19,19,19,19,19,19,19,19,19,19,19,19,19,19,19,18,19,19
57,57,57,56,58,58,57,58,58,57,57,58,57,58,58,58,58,58,58,58,59,59,59,59,59,58,59,58,59,58,59,58,58,59,59,59,59,59,59,59,59,59,59,59,59,59,59,59,59,60,59,59,59,60,59,60,59,59,60,59,60,59,60,59,60,59,59,60,60,60,59,60,60,60,59,59,59,59,59,60,59,59,59,59,59,60,59,60,60,60,60,60,59,60,59,59,59,59,59,59,60,59,59,59,59,60,59,60,59,59,59,60,60,60,60,59,59,60,59,59,59,59,59,59,60,59,59,59,59,59,59,59,59,59,59,59,60,59,59,59,59,58,58,59,58,59,59,59,59,59,58,58,59,58,58,59,59,58,59,58,59,58,59,59,58,58,58,58,58,58,58,58,58,58,58,58,58,58,59,58,58,58,58,58,58,57,57,57,57,58,57,58,57,57,57,57,57,57,57,57,57,57,57,57,57,57,57,57,57,57,57,57,57,57,56,57,57,56,57,56,57,56,57,57,56,56,56,57,56,56,56,56,56,56,56,57,56,56,56,56,57,56,56,56,56,56,56,56,56,55,55,56,56,55,56,56,56,55,56,55,56,55,56,56,57,56,56,57,57,57,57,57,57,57,57,57,57,57,57,56,57,56,56,57,57,57,56,56,56,56,56,56,56,57,56,57,56,57,56,57,57,57,56,57,56,56,56,56,57,56,56,56,56,56,56,56,56,55,56,56,56,56,56,55,56,56,56,56,56,55,55,56,56,56,55,55,55,55,55,55,55,55,55,55,55,55,55,55,54,55,55,55,54,55,54,55,54,54,55,54,54,54,54,54,54,54,54,54,54,54,54,54,54,54,54,54,54,54,54,55,54,54,54,54,55,54,54,54,54,54,54,54,53,54,54,54,54,54,54,54,54,54,54,53,54,54,54,54,54,54,54,54,54,54,54,54,54,54,55,54,54,54,54,54,54,55,54,54,54,54,54,55,54,54,53,54,55,54,53,54,54,54,54,54,54,54,54,54,54,54,54,54,54,54,54,54,54,54,53,54,54,54,54,54,54,54,54,54,53,54,54,54,54,54,54,54,53,55,54,53,54,53,54,54,54,53,54,54,54,54,54,54,54,53,54,54,55,55,54,54,54,54,54,54,54,54,55,54,54,54,54,54,54,54,54,54,54,54,55,54,55,54,54,54,55,55,54,54,55,54,54,54,54,54,54,55,54,54,54,54,54,55,54,55,54,54,54,55,54,55,55,54,55,54,55,54,55,55,55,54,55,55,55,55,55,55,55,55,55,54,55,55,55,55,55,55,55,55,55,55,55,55,55,55,54,54,55,55,55,55,55,55,56,55,54,54,55,54,55,55,54,55,55,54,56,55,55,54,55,55,55,55,55,54,55,55,55,54,54,55,54,55,55,55,54,55,55,55,55,55,55,54,55,54,55,55,55,55,55,54,56,55,55,54,54,55,55,55,55,55,55,55,56,54,55,55,55,55,55,55,55,55,55,55,54,55,54,55,55,55,55,55,55,55,55,55,55,55,55,55,55,55,55,54,55,55,55,55,55,55,54,55,55,54,55,55,55,55,55,54,55,55,55,55,55,55,56,55,56,55,55,56,56,55,56,55,56,56,55,55,56,55,55,55,56,56,55,55,56,56,55,55,55,56,56,56,55,56,56,56,56,55,56,56,55,55,56,55,57,55,56,55,56,56,56,56,56,55,55,56,56,56,56,55,56,56,57,56,56,57,56,56,56,56,57,56,56,56,56,56,56,57,56,56,56,57,57,56,57,56,56,57,56,57,57,57,57,57,57,56,57,56,56,56,56,57,56,57,56,57,56,57,57,56,57,57,57,57,57,57,57,57,57,57,57,57,57,57,57,57,57,57,57,57,57,57,57,57,57,57,57,57,57,57,57,57,57,57,57,57,57,57,57,57,57,57,57,58,58,57,58,58,57,57,58,57,57,58,58,57,58,57,57,57,57,58,57,58,57,58,58,57,58,58,58,58,58,57,57,57,58,58,58,58,58,58,58,57,57,57,57,58,58,58,58,57,58,57,58,57,58,58,58,57,58,58,58,58,58,57,58,58,58,57,58,58,57,57,58,58,58,58,58,58,58,58,58,58,58,58,58,58,57,58,58,59,59,59,59,61,61,60,61,61,61,60,61,60,61,60,60,60,60,60,61,60,59,59,60,59,60,59,60,60,59,59,59,58,59,55,55,55,55,55,55,55,56,56,56,56,56,56,56,57,56,56,56,56,57,56,56
19,19,19,19,19,19,19,20,19,19,18,18,19,19,19,19,19,18,19,18,18,18,19,19,18,18,18,18,18,19,18,18,18,18,19,18,18,19,18,19,19,18,18,18,18,17,18,19,18,19,18,18,18,17,17,18,17,18,17,17,17,17,17,18,18,17,17,17,17,18,17,17,17,18,18,18,17,17,17,18,18,17,18,17,18,18,18,18,18,19,17,18,19,19,18,18,17,18,18,18,18,18,18,18,18,18,18,18,18,18,18,18,18,17,18,18,18,18,18,19,19,17,17,18,18,18,18,17,18,17,18,18,17,17,17,17,17,17,17,17,17,18,17,18,18,18,18,18,18,18,18,17,17,18,18,17,18,18,18,19,19,18,18,18,18,18,18,17,18,18,18,18,18,18,19,18,18,19,18,18,17,17,18,17,18,18,18,18,18,18,18,18,18,18,18,18,18,17,18,19,18,19,19,18,19,18,19,19,18,18,18,18,19,19,19,19,18,19,18,18,18,19,18,19,19,19,19,19,19,19,19,19,18,18,18,18,19,19,18,18,18,18,18,19,18,18,18,19,18,18,18,19,18,18,19,19,19,18,18,18,18,18,18,19,18,18,18,18,19,19,18,19,18,18,18,18,18,19,19,18,19,19,19,19,19,19,19,18,18,18,18,18,18,18,18,18,18,18,18,18,18,18,18,18,18,19,19,18,18,18,18,19,18,19,18,18,18,18,18,18,19,18,18,18,18,18,18,18,18,18,18,19,18,19,18,18,18,18,18,18,18,19,18,18,18,18,18,18,18,18,18,19,19,18,19,19,18,18,19,18,18,18,18,18,18,18,18,19,18,18,19,18,18,18,18,19,18,19,19,19,19,19,19,20,20,20,20,19,19,20,20,20,20,20,20,21,20,20,20,19,19,20,20,20,19,20,20,20,20,20,19,19,19,20,20,20,20,19,19,20,19,20,19,20,20,20,19,19,19,19,19,19,19,19,19,20,20,19,19,19,19,19,19,19,19,19,19,20,19,19,19,19,20,19,19,19,19,19,19,19,19,19,19,19,19,19,20,19,19,19,18,19,18,19,21,20,20,20,20,20,19,19,19,19,19,20,19,19,19,19,19,19,19,19,19,19,18,18,18,19,18,18,19,18,18,18,18,18,18,18,18,18,18,18,18,19,19,19,19,18,18,19,19,19,19,19,19,18,18,19,19,19,18,18,18,18,18,18,18,19,18,18,19,19,19,19,18,19,19,19,19,19,19,19,18,19,19,19,18,18,18,18,18,18,18,18,19,18,18,18,19,19,19,19,20,20,19,20,20,19,20,20,20,19,19,20,20,20,20,20,20,20,20,20,20,21,20,21,20,20,20,20,20,20,20,19,19,19,20,20,19,19,20,20,20,21,20,20,20,19,19,20,20,20,20,20,20,20,20,20,19,19,19,19,20,20,20,20,20,20,20,20,20,20,20,21,20,21,21,20,21,20,20,20,20,20,21,21,20,20,20,20,20,21,21,20,20,20,21,21,20,20,20,20,20,21,20,20,21,21,21,20,21,21,21,20,21,20,20,21,20,20,20,21,21,21,21,21,20,20,20,20,19,20,20,20,20,20,19,19,20,19,19,19,19,19,19,19,19,19,19,19,19,19,19,19,18,18,19,19,19,18,19,19,18,19,19,19,18,18,19,18,18,18,19,19,18,18,19,18,18,18,18,18,18,19,19,17,18,17,19,18,18,18,18,18,19,19,19,18,18,18,18,18,18,18,18,19,19,19,18,18,18,19,19,18,19,18,18,18,19,19,18,18,18,18,18,18,18,19,19,19,18,19,19,19,19,20,20,20,20,20,19,20,20,20,20,20,21,21,20,20,20,20,20,20,20,20,20,20,20,20,21,21,21,21,21,21,21,20,20,20,21,21,21,21,21,21,21,21,21,21,21,21,21,21,21,21,21,21,21,21,21,21,21,21,21,21,21,21,21,21,21,21,21,21,21,21,21,20,21,21,21,22,21,21,21,21,21,21,21,21,21,21,21,21,21,21,21,21,22,21,22,22,22,22,22,21,22,22,21,22,21,21,21,22,22,22,22,22,22,21,21,22,21,21,21,21,22,22,22,22,21,21,21,21,21,22,22,21,21,21,21,21,22,21,21,21,21,21,21,21,21,20,20,20,21,21,21,21,20,21,20,20,20,21,21,20,20,20,20,21,19,20,21,20,20,18,18,18,19,18,18,18,17,18,18,18,18,18,18,18,19,18,18,18,18,18,18,18,18
57,57,57,57,57,57,58,57,57,57,57,57,58,57,58,58,58,58,58,58,58,58,58,58,58,58,58,58,58,59,59,58,58,58,59,58,58,59,58,59,59,59,58,59,58,58,58,59,58,58,59,58,59,58,58,58,58,59,58,58,59,59,59,59,58,58,58,58,58,58,59,59,58,59,58,58,59,58,59,58,59,58,58,58,59,58,58,59,58,58,58,58,59,58,58,59,58,59,58,58,58,58,59,59,59,59,58,58,58,58,58,58,59,58,58,59,59,58,57,58,58,58,58,58,58,58,57,57,59,58,58,58,58,57,58,57,57,57,57,57,57,58,57,58,57,57,58,57,57,57,57,57,57,57,57,57,56,57,57,56,56,56,57,56,56,57,56,56,56,56,56,56,56,56,57,56,56,56,56,57,56,56,56,56,57,57,57,56,56,55,56,56,56,56,55,55,56,55,56,55,55,56,56,56,55,55,55,55,56,56,55,55,55,55,55,55,56,56,55,55,55,55,55,55,55,55,55,55,55,55,55,55,55,54,55,54,55,55,55,54,55,55,54,55,55,54,55,55,55,54,55,54,54,54,54,54,55,54,55,54,55,55,54,54,55,54,54,54,54,54,54,54,55,54,54,54,54,54,54,54,54,55,54,54,54,54,54,55,54,54,54,54,54,54,54,54,53,54,54,54,54,54,54,54,54,54,54,54,54,53,54,54,54,54,55,54,54,54,53,54,54,53,54,54,54,54,54,53,53,54,54,53,54,54,53,54,54,54,54,53,53,54,53,54,54,54,54,54,54,54,54,54,53,54,54,53,53,54,54,54,54,54,54,54,54,54,55,54,54,54,54,54,54,54,55,54,53,54,54,54,54,55,54,55,54,55,55,55,54,55,54,55,54,55,55,54,54,55,54,54,54,55,54,55,55,54,55,55,54,54,55,55,55,55,55,55,55,55,54,55,55,55,55,55,55,55,55,55,55,55,55,55,55,55,55,55,56,55,56,56,55,55,55,55,55,55,55,55,55,55,55,56,55,55,56,56,55,56,55,55,55,55,55,56,55,55,55,55,55,55,56,55,56,55,55,55,56,55,55,56,56,56,56,56,56,55,55,56,55,56,55,56,56,56,55,55,56,56,55,56,56,55,55,55,56,56,56,56,55,55,56,55,55,55,55,56,55,56,56,56,56,55,55,56,55,57,56,56,56,56,56,56,56,55,55,55,56,55,56,56,56,55,56,55,56,56,55,56,56,56,56,56,56,56,56,57,56,55,56,56,57,56,56,56,56,56,56,57,57,56,57,57,56,57,57,57,57,57,57,57,57,57,57,57,57,58,57,57,57,57,57,58,57,59,58,58,57,57,58,57,58,58,58,58,58,58,58,57,58,57,58,58,57,58,58,57,57,57,57,58,58,58,58,57,57,57,57,57,57,57,57,57,56,58,57,57,57,57,58,58,58,59,59,59,60,60,60,60,60,60,60,60,61,60,61,59,61,61,60,60,60,59,60,60,60,59,61,61,59,60,60,60,60,60,60,61,60,60,60,60,59,60,59,60,59,59,59,59,59,58,59,59,59,59,58,59,59,58,59,58,58,58,58,58,59,58,58,58,58,58,58,57,58,57,57,57,57,57,57,57,57,57,57,57,57,57,56,57,57,57,57,56,57,57,56,57,57,57,57,57,57,57,56,56,56,57,57,56,57,56,56,56,56,56,56,57,57,56,56,56,56,55,57,56,56,56,56,56,56,56,57,55,55,56,56,56,56,56,56,55,55,56,56,55,55,55,56,55,55,55,56,55,55,55,55,56,55,56,55,55,55,55,55,55,55,56,55,55,56,55,55,56,55,55,56,55,55,55,56,55,56,55,55,55,55,55,56,55,55,55,55,55,55,56,56,56,56,56,56,56,56,55,55,56,56,56,55,55,56,56,55,56,56,56,56,55,56,55,55,56,56,56,56,55,55,56,56,56,56,56,56,56,55,56,56,55,56,55,55,56,55,55,56,55,56,55,56,56,56,56,56,56,56,56,55,56,56,55,55,55,56,56,55,56,56,56,56,56,56,56,56,56,56,55,56,55,56,55,56,56,56,55,56,56,56,56,56,56,55,56,55,56,56,56,56,55,55,56,56,56,55,55,56,55,56,56,56,57,55,56,55,55,56,56,56,56,56,56,56,55,56,56,56,56,56,56,55,56,56,56,56,55,55,56,56,56,56,54,55,54,54,55,55,55,56,55,55,55,56,56,55,55,57,56,56,56,56,56,56,57,56
19,17,17,18,19,20,19,18,19,19,19,18,19,19,18,18,18,18,18,18,18,18,18,18,17,17,17,17,17,17,18,18,19,19,18,18,18,19,18,18,18,19,19,18,18,19,19,20,19,20,19,19,18,19,19,19,19,18,19,19,19,19,19,19,19,19,18,19,19,18,18,18,18,19,18,18,18,18,18,18,18,18,19,17,17,17,18,18,18,17,18,17,17,17,17,17,17,17,18,16,17,17,17,17,17,17,17,17,17,17,17,17,17,17,17,17,17,18,17,17,18,18,17,17,17,17,17,17,18,17,17,17,18,17,17,17,17,17,17,17,17,17,18,17,17,17,17,17,17,17,16,17,17,17,17,18,18,18,18,18,18,18,18,18,18,17,17,17,17,18,18,18,18,18,18,18,19,18,18,18,18,17,18,17,18,18,18,18,18,17,17,17,17,17,17,17,17,18,18,18,19,18,18,18,17,18,17,17,18,17,17,19,18,18,17,17,18,18,17,17,17,17,17,17,17,17,17,17,17,17,17,16,16,17,18,17,16,17,18,17,17,17,17,16,16,16,17,17,17,16,17,17,17,17,17,17,16,17,16,17,16,16,16,17,16,16,17,16,17,17,16,16,17,17,17,16,17,17,16,17,17,17,17,17,17,17,17,17,16,16,16,16,17,17,17,16,16,16,16,17,17,17,16,16,16,16,17,17,17,17,17,17,17,17,17,16,17,18,17,18,17,18,18,18,18,18,18,18,18,18,18,17,18,18,19,20,19,19,19,19,19,19,19,19,20,19,20,20,19,19,19,19,19,19,20,19,19,19,19,20,19,19,20,20,20,20,19,20,20,20,19,19,19,19,19,19,20,19,19,20,19,19,19,19,18,19,19,18,19,19,19,19,19,18,18,19,18,19,18,18,18,18,19,19,19,19,19,19,18,18,19,19,19,18,18,18,18,18,18,18,18,17,18,18,18,18,18,18,18,18,18,18,18,18,18,19,18,18,18,18,18,17,17,17,18,18,19,18,18,18,18,18,18,18,17,17,18,17,18,18,19,19,18,19,18,18,18,17,18,17,17,18,18,17,18,18,18,17,17,17,17,18,18,17,17,17,17,17,17,17,17,18,17,18,18,17,17,18,17,17,18,18,18,18,18,18,17,18,18,17,17,17,18,18,18,18,18,18,19,18,18,18,18,19,18,17,18,19,18,18,18,19,18,18,19,18,18,18,18,18,17,18,18,18,18,18,18,18,18,18,18,17,18,18,18,18,18,17,19,17,17,18,18,18,17,17,18,17,17,17,17,17,17,17,17,16,17,17,17,17,18,17,17,17,17,17,17,17,17,17,17,17,17,17,17,17,19,18,18,17,17,18,17,17,17,17,17,17,17,17,18,17,17,17,17,17,18,17,17,17,17,17,17,17,18,18,17,17,17,17,18,17,17,18,17,17,17,18,18,18,18,17,17,18,17,17,17,17,17,17,17,18,18,18,18,18,18,18,18,18,18,18,18,18,18,19,18,18,18,18,18,18,18,19,18,18,18,19,18,19,19,19,18,18,19,19,19,18,19,19,18,19,18,18,18,18,18,18,18,18,18,18,19,18,18,18,19,18,19,18,19,18,19,18,18,18,18,19,18,17,18,18,17,18,17,19,18,17,18,18,18,18,18,18,18,19,19,18,19,17,18,18,18,18,18,18,17,18,19,18,19,19,18,18,18,18,18,18,19,18,18,18,18,18,18,18,18,18,18,18,17,17,18,18,18,18,18,18,18,18,18,18,18,18,18,18,18,18,18,18,18,18,18,18,19,19,18,18,19,18,19,19,19,18,19,19,19,18,19,19,18,19,18,18,18,18,18,19,19,19,19,19,19,18,19,19,19,18,19,19,18,19,19,19,19,18,19,18,19,18,18,18,18,19,20,19,18,19,18,19,18,19,18,18,19,18,19,19,18,19,19,18,18,18,19,18,18,18,18,18,19,18,18,18,18,18,19,18,18,18,18,18,18,18,18,18,19,18,18,18,18,18,18,18,18,18,19,19,18,18,18,19,18,17,18,18,18,17,18,18,18,18,18,18,18,18,18,18,17,17,17,17,18,18,17,18,18,18,18,18,18,18,18,18,17,18,17,18,18,18,19,18,18,19,19,18,19,19,19,19,19,18,18,18,19,18,18,19,18,18,19,18,17,18,18,19,18,18,18,19,19,19,18,19,19,19,19,19,19,19,19,19,19,19,18,19,19,19,18,19,19,19,19,19,18,19,19,19,19,19,19
57,57,57,57,58,57,57,58,57,57,57,57,57,58,58,57,57,58,58,58,58,58,58,58,58,58,58,58,58,59,58,58,58,58,58,58,58,58,58,58,59,58,59,58,58,58,59,58,59,58,59,58,58,59,58,59,59,59,59,58,59,59,59,59,59,59,59,59,59,59,59,59,58,59,59,59,59,59,59,58,58,59,58,59,59,59,59,59,59,59,59,59,59,59,59,58,59,58,59,58,59,58,59,58,58,58,59,58,58,59,59,58,58,58,58,59,58,58,59,58,58,58,58,58,58,57,58,58,58,58,58,58,58,58,58,57,57,57,58,58,57,57,58,57,57,57,57,57,57,57,57,57,57,58,57,57,57,57,57,57,57,57,57,57,57,57,57,56,58,57,57,57,57,56,57,57,56,57,56,56,56,57,56,57,56,57,57,56,56,56,57,57,56,57,56,56,56,56,56,55,56,55,56,56,56,55,55,56,55,55,56,56,55,55,56,55,56,55,55,55,56,55,55,54,55,55,55,55,55,55,55,55,55,55,55,55,55,55,55,54,55,54,55,54,55,55,54,54,54,54,54,54,55,54,54,54,54,54,55,54,54,54,55,55,54,54,55,54,54,54,55,54,54,54,54,54,54,55,54,55,54,55,54,55,54,55,54,54,55,54,55,54,54,55,54,54,54,54,54,54,54,54,55,54,54,54,54,54,54,54,54,54,54,55,56,57,59,60,59,60,60,61,61,62,63,64,67,67,67,67,68,68,67,67,67,68,68,67,68,67,68,68,67,67,68,67,67,66,67,68,68,67,67,67,67,68,67,67,67,67,67,66,67,67,66,66,67,66,66,66,66,66,66,66,66,66,65,65,65,65,65,65,65,64,64,64,64,64,64,64,64,63,64,64,63,63,63,63,62,63,63,62,62,62,62,62,62,61,62,61,61,61,61,60,61,60,60,60,60,60,60,60,60,59,60,59,59,59,58,59,59,59,59,58,58,58,58,58,58,58,58,57,58,57,57,57,57,57,57,58,57,57,57,57,57,57,57,57,56,56,56,56,56,57,56,57,56,57,56,56,55,55,56,56,56,55,57,56,55,55,55,55,55,55,55,55,56,56,56,55,55,55,55,55,55,55,55,55,55,54,55,55,55,55,54,54,55,54,55,55,54,54,54,54,54,54,54,54,54,54,54,54,54,55,54,54,54,54,54,54,55,54,54,54,54,54,54,55,54,54,54,54,54,54,54,55,55,54,54,54,54,54,54,54,54,54,54,55,54,54,54,53,54,54,54,53,54,53,53,54,54,54,54,53,54,54,54,54,53,54,53,54,54,54,54,54,53,54,53,53,54,53,54,54,53,53,54,54,54,54,54,54,53,53,53,53,53,53,53,53,53,53,54,54,53,54,54,54,54,54,54,54,54,54,54,54,54,54,54,54,54,54,54,54,54,54,54,54,54,54,54,54,54,54,55,54,55,54,54,54,54,54,54,55,54,55,55,54,54,55,55,57,56,56,57,57,56,57,57,57,57,57,57,57,57,57,57,57,57,57,57,57,57,57,57,58,58,57,58,58,58,58,58,58,59,58,59,59,58,59,59,59,59,59,59,59,58,58,59,58,58,58,58,58,57,58,58,57,58,58,58,58,58,57,57,58,57,57,57,58,57,57,57,56,57,57,57,56,57,56,56,56,57,57,56,57,57,56,56,56,56,56,56,56,57,56,55,56,56,57,56,56,56,55,55,56,56,56,56,55,56,56,56,55,55,56,55,56,56,55,56,55,55,56,55,55,55,55,55,55,56,56,55,55,56,55,55,55,55,55,55,55,55,55,55,56,55,55,56,55,55,55,55,55,55,55,55,55,56,55,55,56,56,56,55,55,55,55,55,55,55,55,55,55,56,56,55,55,55,55,55,55,55,55,55,55,55,55,55,55,55,55,55,55,55,55,55,55,55,55,55,55,55,54,54,55,55,55,55,55,54,55,55,55,55,55,55,55,55,55,55,55,55,55,55,54,55,55,55,56,55,56,56,55,55,55,56,55,56,56,56,56,57,56,56,56,56,57,57,56,56,56,57,57,57,57,56,57,57,57,57,57,57,57,57,58,57,58,57,57,58,57,57,57,57,57,57,57,57,57,57,57,57,57,57,57,57,57,57,57,57,57,57,57,57,57,57,57,57,56,57,56,56,56,56,56,56,56,56,56,57,56,56,56,56,56,56,56,56,56,56,56,57,57,56,57,56,56,57,57,57,57,57,57,58,57,57,58,58,59,59
19,18,19,19,19,19,19,19,19,19,20,19,19,20,20,19,19,19,20,19,19,19,19,20,19,19,19,19,18,19,19,20,20,20,20,20,19,20,20,20,20,19,19,20,20,20,19,19,19,19,19,20,19,19,19,19,19,19,19,19,19,20,19,19,19,19,20,18,18,18,18,19,19,18,18,18,19,18,19,19,19,19,19,18,18,18,18,18,18,18,18,18,18,18,18,18,18,19,19,18,18,19,19,19,18,18,18,18,18,18,17,18,18,19,19,19,18,19,18,18,19,18,18,18,18,18,19,19,19,19,19,19,19,19,18,18,19,19,18,19,19,19,18,19,19,19,18,19,18,18,18,18,18,18,19,19,19,19,19,19,18,19,19,19,18,18,18,18,19,19,19,19,19,19,19,19,19,19,19,19,19,19,19,19,19,20,19,19,20,20,19,19,19,19,19,19,19,20,19,20,19,20,19,20,20,20,19,19,20,21,20,20,20,20,20,20,20,19,19,21,19,19,20,20,20,19,19,19,20,20,20,20,19,20,19,19,19,20,20,19,19,19,18,19,19,20,19,19,19,19,20,20,20,20,20,20,20,20,20,21,20,20,19,19,19,20,19,19,19,20,20,19,20,20,19,19,20,19,20,19,20,20,19,20,20,20,20,19,19,19,19,19,20,20,20,20,19,19,19,19,19,19,19,19,18,19,19,19,18,18,19,18,18,18,19,19,18,19,18,18,18,18,19,19,18,18,19,18,19,18,18,19,19,19,19,19,18,18,18,18,18,18,19,18,18,18,19,18,19,19,18,18,19,18,18,18,18,18,19,19,19,19,18,18,18,19,19,18,19,18,19,18,18,18,19,19,19,18,19,19,19,19,19,20,19,19,19,20,19,19,19,19,19,20,19,19,19,19,19,19,19,19,19,19,19,20,19,18,19,19,19,19,19,19,19,20,19,20,19,19,19,19,19,19,19,20,19,19,19,19,19,19,19,19,19,19,18,18,18,18,19,19,18,18,19,18,18,18,18,18,18,18,18,18,18,18,18,18,17,17,18,18,17,17,18,18,17,17,17,17,17,17,18,17,17,17,17,17,17,17,17,17,17,17,17,17,17,18,17,18,17,18,18,18,17,18,17,18,20,19,19,19,19,19,19,18,19,18,19,19,18,19,19,19,19,19,18,18,18,19,19,18,18,18,18,19,18,18,19,19,19,19,18,18,18,17,18,18,18,18,19,19,18,19,18,17,18,18,18,19,19,18,18,18,18,18,18,18,18,18,18,18,18,17,18,18,18,18,18,18,18,18,17,18,18,18,18,17,17,17,17,18,18,18,17,17,17,18,17,17,18,17,17,18,17,17,18,17,18,17,18,18,18,18,17,18,18,17,18,18,17,17,18,17,17,17,18,17,17,17,17,18,18,18,17,18,17,17,18,18,18,17,18,17,18,18,18,18,18,18,18,17,18,17,17,17,17,17,18,18,18,18,18,18,18,18,18,18,17,19,17,17,17,17,18,17,18,17,17,17,18,17,18,17,18,18,17,17,17,17,17,17,17,17,17,17,17,18,17,17,17,17,17,17,17,17,17,17,17,17,17,17,18,18,18,18,18,18,18,18,18,18,18,17,18,18,18,18,18,18,19,19,19,18,18,18,18,18,18,17,18,18,18,18,18,18,18,18,18,18,18,18,17,17,17,18,18,17,17,16,17,17,17,16,17,17,16,16,17,17,18,17,17,17,17,17,17,17,17,17,17,17,17,17,17,17,17,17,17,16,17,16,16,17,17,17,17,17,16,17,16,16,17,17,17,17,16,16,17,16,18,17,17,17,17,17,17,17,17,17,17,17,17,17,17,17,17,17,17,17,16,17,16,16,17,17,16,16,17,17,17,17,16,17,16,16,16,16,16,16,16,17,17,17,17,17,17,17,16,17,16,16,17,16,16,17,19,17,17,18,17,17,18,17,17,17,17,17,18,18,18,18,18,18,18,18,17,18,17,18,18,18,18,19,19,18,18,18,17,18,18,17,17,18,17,17,17,18,17,17,17,17,17,17,17,17,18,17,16,17,17,17,17,17,17,17,17,17,17,17,17,17,16,17,17,17,17,17,17,17,17,17,16,16,16,16,17,16,17,17,17,17,17,16,16,16,16,17,16,17,16,17,17,17,17,16,17,16,17,16,16,16,16,17,17,17,17,17,17,17,17,17,17,18,18,18,18,18,19,18,18,18,18,18,18,19,18,18,19,19,19,19,19,19,18,19,19,20,19,19,19
58,57,57,58,57,58,58,57,58,57,57,58,58,58,58,58,58,57,58,58,58,58,58,58,58,58,58,58,58,59,59,59,58,58,58,58,59,58,58,58,59,59,59,59,59,59,59,60,59,59,60,59,59,59,59,59,60,59,60,59,60,60,60,60,60,60,60,60,59,60,60,60,59,60,60,60,60,60,60,59,60,60,60,61,59,60,60,60,60,60,60,60,60,59,60,60,61,60,60,60,60,59,60,60,60,60,60,60,60,60,60,59,60,60,61,61,60,61,60,60,60,59,60,60,60,60,59,60,60,60,60,60,60,60,60,60,60,60,61,60,60,60,60,60,60,60,60,60,59,60,59,60,59,59,60,59,59,60,60,59,59,59,59,59,59,59,60,59,59,59,59,59,59,59,59,59,59,59,58,59,58,59,59,58,58,59,58,59,58,59,58,58,58,58,58,58,58,58,58,58,58,58,58,58,58,58,58,58,58,58,57,57,58,58,57,57,58,57,57,58,57,57,58,57,57,58,57,57,57,57,57,57,57,57,57,57,57,57,57,57,57,58,56,58,57,57,57,57,57,57,57,57,57,56,56,56,57,56,57,57,56,56,57,56,56,56,57,56,57,56,56,56,57,56,57,56,57,56,56,55,57,55,55,55,55,56,56,56,56,55,55,56,56,56,56,55,55,55,56,55,55,56,55,56,55,55,56,55,56,55,55,55,55,55,55,55,55,55,55,54,55,56,55,55,55,55,55,55,55,55,55,55,55,55,55,55,55,55,55,55,55,55,54,55,54,55,54,55,54,55,55,55,54,54,55,55,54,54,54,55,55,55,54,54,54,54,54,54,54,55,54,54,54,54,54,54,54,55,55,54,55,54,55,54,54,54,54,53,54,54,54,55,54,54,54,54,54,54,54,54,54,54,54,55,54,54,54,54,54,53,54,54,54,54,54,54,54,54,54,55,54,54,54,55,54,54,54,54,54,54,55,54,53,53,53,53,54,53,54,54,54,55,54,54,54,54,54,54,54,53,53,54,54,54,54,53,54,54,53,53,54,54,54,54,54,53,53,53,53,53,53,53,53,54,53,53,53,53,54,54,54,54,54,53,54,54,54,54,54,54,54,54,54,54,54,54,54,54,54,55,54,54,54,54,54,54,54,54,54,55,54,54,54,54,54,54,54,54,54,54,55,54,54,54,54,55,55,54,54,54,54,55,54,54,54,54,54,55,54,54,55,54,54,55,54,55,55,55,54,54,54,54,54,54,55,54,55,55,54,54,54,54,54,54,54,54,54,55,55,54,54,54,54,54,55,54,55,55,54,55,55,55,54,54,55,54,54,55,54,54,55,56,54,55,55,55,55,55,55,55,55,55,55,56,55,55,55,56,55,55,56,55,55,55,56,56,55,55,55,56,55,55,55,55,55,55,55,55,55,55,55,56,55,55,55,55,55,56,56,55,55,55,56,56,56,56,55,55,56,56,56,55,56,55,55,56,56,56,55,56,56,56,56,56,56,56,55,55,55,55,56,56,55,55,56,55,55,56,56,55,56,56,56,56,55,56,56,56,56,56,56,55,56,57,56,57,57,57,57,58,58,59,59,59,59,59,59,58,59,59,59,59,59,58,58,59,58,59,58,58,58,58,58,58,59,58,58,58,59,58,58,57,57,58,58,58,58,57,58,57,57,57,57,57,57,57,57,57,57,57,57,57,57,57,57,57,57,56,56,56,56,56,57,56,56,57,56,56,56,56,56,57,56,57,56,56,56,56,57,56,57,57,56,56,56,56,56,56,56,56,56,56,57,56,56,56,56,56,57,56,56,56,56,57,56,56,56,56,57,56,56,57,56,56,57,56,56,57,57,57,56,56,56,56,56,56,56,55,56,57,56,56,56,57,56,56,57,56,56,56,56,56,56,56,56,57,56,57,56,56,56,56,56,56,56,56,56,56,57,56,56,56,57,56,56,56,56,56,56,56,57,56,56,56,57,56,56,56,56,56,56,56,56,56,56,56,57,56,56,56,56,56,56,56,57,56,56,56,56,56,56,56,56,56,56,57,56,56,56,56,56,56,56,56,56,56,56,56,56,56,56,56,56,56,55,55,56,56,56,55,55,56,55,55,55,56,55,56,55,56,56,55,56,56,55,56,56,56,57,55,56,56,56,56,56,56,56,56,56,56,56,56,56,55,55,56,56,56,55,55,56,56,55,54,54,54,54,54,54,54,54,55,55,55,55,55,56,55,56,56,56,56,56,56,56,56,56,56,56,56,56
19,20,19,20,20,20,20,19,19,20,20,20,20,20,20,20,19,20,20,20,20,20,20,19,20,21,20,20,20,20,20,20,20,20,21,19,20,20,21,20,20,20,21,20,20,20,20,21,21,20,21,20,21,20,21,20,20,21,20,21,20,20,21,21,20,21,21,21,21,20,21,21,21,21,21,21,21,21,21,21,22,22,22,22,22,22,22,22,22,22,21,21,21,22,21,22,22,22,22,23,23,22,22,22,22,22,22,22,22,22,22,22,22,22,22,22,21,21,21,21,22,22,22,22,22,22,22,23,22,22,22,22,22,22,22,22,22,21,22,22,22,23,22,22,22,22,22,22,22,22,22,22,22,22,22,22,23,22,22,22,22,22,22,22,22,22,22,22,23,22,22,22,22,23,22,22,22,22,23,22,22,22,23,22,22,22,22,22,22,22,22,22,21,22,22,22,22,23,22,22,22,21,21,21,21,21,21,21,21,21,21,22,21,22,21,21,21,22,21,21,22,22,22,22,21,21,21,22,22,22,22,22,22,21,21,21,21,22,21,21,22,21,22,21,21,21,21,21,21,21,21,21,21,21,20,21,21,21,21,20,21,21,22,22,21,21,21,21,21,21,21,21,21,21,21,22,21,22,22,21,21,21,22,22,21,21,21,21,21,21,22,22,22,22,22,22,21,22,21,21,21,21,21,22,22,22,23,22,22,22,22,22,22,22,22,22,23,22,22,23,22,22,22,22,22,22,22,22,22,22,22,22,22,21,22,23,22,21,22,21,21,21,21,21,21,22,21,21,22,21,21,21,21,21,21,21,21,20,21,21,21,20,21,20,20,20,20,20,20,20,20,20,20,20,20,20,20,21,20,20,21,21,20,21,21,21,21,21,21,21,20,21,20,21,21,21,21,21,21,21,21,21,21,21,21,21,20,20,20,20,21,20,20,21,20,20,20,20,20,20,21,20,19,20,19,20,19,20,20,20,20,20,20,21,20,20,20,20,19,20,20,20,20,21,20,21,20,20,20,19,20,19,19,19,18,19,19,19,19,18,19,19,18,19,19,18,19,18,18,18,19,19,19,19,19,19,19,18,19,18,18,18,19,18,18,19,18,18,18,19,17,18,18,18,18,18,18,18,18,18,17,18,17,17,17,17,17,17,17,18,18,18,18,18,18,19,18,19,18,18,18,18,18,19,19,19,19,19,19,19,19,19,19,18,19,19,19,19,19,20,20,19,20,19,20,19,19,19,20,19,20,20,20,20,19,21,19,20,20,20,20,20,19,19,19,20,20,20,20,20,20,19,20,20,20,20,20,20,20,20,20,20,20,20,19,20,19,20,20,20,19,20,20,20,20,21,20,20,20,21,20,20,20,20,20,20,20,21,20,20,19,19,19,19,19,19,19,19,19,19,20,19,19,19,19,19,19,18,19,19,19,19,19,19,19,19,19,19,19,19,18,19,18,19,18,18,19,19,19,18,19,18,19,18,18,18,18,18,17,17,18,17,18,17,17,17,17,17,18,17,17,17,18,17,18,18,18,18,18,19,18,17,18,17,17,17,17,17,18,17,17,19,18,17,18,18,18,18,18,17,17,17,18,17,18,18,18,17,17,17,17,18,17,17,17,17,18,17,17,17,18,18,18,18,18,18,17,17,18,19,19,19,19,19,19,19,19,19,19,19,19,19,18,19,19,19,18,18,19,19,18,18,19,18,18,19,19,19,18,18,19,19,19,18,18,18,18,18,18,18,18,18,18,18,18,18,17,18,17,18,17,17,17,17,18,18,19,19,19,19,19,19,18,19,18,18,18,19,18,19,18,19,19,19,18,19,19,19,19,18,18,19,19,19,18,18,18,19,18,18,18,19,18,18,18,18,20,19,19,19,18,18,18,18,19,18,19,18,18,19,19,19,18,18,18,18,18,19,18,18,18,18,18,18,19,18,18,19,18,18,18,18,18,18,18,18,18,18,18,18,18,18,19,17,18,17,17,17,17,17,18,19,18,18,18,18,18,17,18,17,17,17,17,17,18,18,18,18,18,18,18,18,18,18,18,18,18,18,19,19,18,18,18,18,18,18,18,18,18,18,19,19,19,18,19,19,19,18,18,18,17,18,18,18,18,18,18,18,18,18,17,18,18,18,18,17,17,17,18,17,18,18,18,18,18,18,18,18,18,18,18,18,17,18,18,18,18,18,18,18,17,17,18,17,17,18,17,17,17,17,17,17,17,17,17,17,17,17,17,17,18,18,17,17,17,18,17,17,18,17,17
57,56,57,57,57,57,56,57,57,57,58,58,57,57,58,57,58,58,58,58,58,58,58,58,58,58,58,59,58,58,58,58,58,59,58,58,58,58,59,58,59,58,58,58,59,59,58,58,59,58,59,58,59,58,59,59,58,58,59,59,59,58,59,59,59,59,58,59,59,59,59,59,59,59,59,60,59,59,59,59,58,60,59,59,59,58,59,58,59,58,59,59,59,58,58,59,58,58,58,59,59,58,58,58,58,58,59,58,58,58,58,58,58,59,58,58,59,58,58,58,58,58,58,58,58,58,58,59,59,58,58,58,57,58,58,58,57,58,58,57,57,57,57,57,57,57,57,58,57,57,57,57,58,57,57,57,57,57,57,57,57,57,57,57,57,57,57,57,56,57,57,56,57,57,57,57,57,56,56,57,57,56,56,56,56,56,56,57,56,56,56,56,56,56,56,56,56,56,55,55,56,57,56,56,56,56,56,55,56,55,55,56,55,55,56,55,55,56,55,55,55,55,55,55,55,55,55,55,55,55,55,55,55,55,55,55,54,54,55,55,54,54,55,54,54,54,54,54,54,54,55,54,54,55,54,54,54,54,54,54,54,54,54,54,54,54,54,54,55,54,54,54,55,54,54,54,54,54,54,54,53,54,54,54,54,54,54,54,53,54,54,54,54,54,54,54,54,54,54,54,54,55,54,54,54,54,54,54,54,54,54,54,54,53,54,53,53,53,53,53,54,54,54,54,54,54,54,54,53,54,54,54,54,54,54,54,54,54,53,54,53,54,54,54,53,54,54,54,53,53,54,54,54,54,54,54,54,54,54,54,54,54,54,54,54,54,54,54,54,54,53,54,54,54,54,55,54,53,54,54,55,56,55,56,56,56,56,56,56,57,56,57,56,56,56,56,57,56,57,57,56,56,56,57,56,57,56,56,56,55,56,56,56,56,56,56,56,56,56,56,56,56,56,57,55,56,56,56,56,56,56,56,56,56,56,56,56,56,55,56,56,56,56,56,56,56,56,56,56,56,56,56,56,55,56,56,56,55,55,55,55,56,57,56,55,56,56,56,56,55,56,56,56,56,55,56,56,56,56,56,56,55,56,55,56,55,56,56,56,55,56,55,56,55,56,55,55,56,56,55,56,56,55,56,55,55,55,55,55,55,56,55,56,56,56,55,57,56,56,56,56,56,56,56,56,56,57,57,57,57,57,58,58,59,58,60,60,60,60,60,61,60,61,61,61,62,62,62,62,62,62,62,62,62,62,62,62,63,62,62,62,62,62,62,61,62,62,62,62,62,61,62,61,61,61,61,61,61,60,61,61,61,61,61,60,60,60,60,60,59,60,60,60,61,61,60,59,60,60,60,59,59,60,59,59,58,59,58,59,58,59,58,58,58,58,58,58,57,57,57,57,58,57,57,57,57,57,57,57,58,56,57,56,57,57,56,57,56,56,56,56,56,57,56,55,56,56,56,56,55,56,56,56,55,56,56,55,56,55,55,56,55,55,55,55,55,55,55,55,55,55,55,55,55,55,55,55,55,55,55,55,55,55,55,55,55,55,54,55,55,54,55,55,55,55,55,55,55,54,55,55,55,55,54,54,55,55,54,54,54,54,54,54,54,55,54,54,55,54,54,54,55,55,54,54,54,54,55,54,54,55,54,55,54,54,54,54,54,54,55,54,55,54,55,55,54,54,54,55,54,54,54,55,54,55,54,54,55,55,55,54,55,54,54,54,55,54,55,54,54,55,54,54,54,54,55,54,55,54,55,55,54,54,54,54,55,54,54,54,54,54,54,55,54,55,55,55,54,54,54,54,54,55,54,55,54,55,55,55,54,55,55,55,55,55,55,55,55,55,55,54,54,55,55,55,55,55,55,54,55,55,55,55,55,55,55,55,55,54,55,55,55,55,55,55,55,55,55,55,55,55,55,54,55,55,55,55,55,55,55,55,55,55,55,55,55,55,55,55,54,55,55,55,54,55,55,55,55,55,55,55,55,55,55,56,56,55,56,55,55,55,55,55,55,55,55,55,55,55,56,56,55,55,56,55,55,55,55,55,55,56,55,56,55,56,55,56,56,55,55,55,56,55,55,55,55,56,55,55,55,55,55,55,55,55,56,55,56,55,55,56,55,56,56,55,56,55,55,55,55,55,56,55,56,55,55,56,56,55,56,56,56,55,55,56,56,56,55,55,56,56,58,58,58,58,58,58,58,58,58,58,59,59,58,60,59,59,59,60,60,60,60,59,60,60,60,60,60,60,60,60
18,17,17,17,17,17,17,17,16,16,17,18,17,17,17,18,18,18,17,17,16,17,17,17,16,17,17,18,17,17,18,18,17,17,17,17,17,17,17,17,17,17,17,17,17,16,17,18,17,17,17,17,17,16,18,17,16,16,17,17,17,17,17,16,16,17,17,17,16,17,17,17,17,18,17,18,17,18,18,17,17,17,18,17,17,17,17,17,17,17,17,17,17,16,17,18,18,17,17,17,17,18,17,17,18,17,17,17,17,17,17,17,17,17,17,17,17,17,16,18,17,16,17,17,17,17,17,16,17,16,16,16,16,17,17,16,17,18,18,18,18,18,17,17,17,18,17,18,17,18,18,18,18,18,18,17,17,17,17,17,17,16,17,17,19,19,18,18,18,17,17,18,18,18,18,17,18,17,17,18,18,18,17,17,17,17,17,17,17,17,17,18,18,18,17,17,18,17,17,18,17,17,17,17,17,18,18,18,18,18,18,18,18,18,19,18,18,17,18,18,18,18,19,19,18,19,19,19,18,18,18,18,19,19,19,19,18,18,19,18,18,18,19,18,18,18,18,18,18,19,18,18,17,18,18,18,18,18,17,18,17,18,18,18,18,17,17,17,17,17,18,17,17,17,17,18,18,17,17,17,18,17,17,17,17,17,16,17,18,17,18,17,18,17,18,18,17,17,17,17,17,18,18,18,18,17,17,17,17,17,17,17,18,18,17,18,18,18,18,18,18,18,17,17,18,17,17,18,18,18,18,18,17,18,18,17,17,17,17,17,17,17,17,18,18,18,18,18,17,18,18,17,18,18,18,17,18,18,18,19,19,18,18,18,19,18,19,18,17,18,18,19,19,19,19,18,18,18,17,18,18,18,18,19,19,19,20,19,19,19,19,19,19,19,19,18,19,18,18,18,19,18,19,18,19,18,19,18,18,18,18,19,19,18,18,18,18,18,18,18,18,18,18,18,18,18,18,18,19,18,19,18,18,18,19,18,18,17,18,19,18,18,18,18,18,18,18,18,18,18,18,17,18,18,18,18,17,17,18,17,17,17,17,17,17,17,18,19,18,18,17,18,17,18,17,17,17,17,17,17,18,18,18,18,18,18,17,18,18,18,18,18,18,17,18,18,18,17,17,18,18,18,18,17,18,17,17,17,17,17,17,17,17,17,17,17,17,17,17,17,17,17,18,18,18,19,18,18,18,17,17,17,17,17,17,18,19,18,18,18,18,19,19,18,18,18,18,18,18,18,18,18,18,18,18,18,18,18,18,18,17,18,18,18,18,18,18,19,19,18,18,18,18,18,18,19,18,18,18,18,18,18,18,18,18,18,18,18,18,17,18,18,18,18,18,18,18,18,17,18,18,18,18,18,18,18,19,19,18,18,18,18,18,19,19,18,18,18,18,18,18,18,18,18,17,18,17,17,18,17,17,18,17,17,17,18,17,17,17,17,17,17,17,17,17,18,18,18,18,18,18,18,19,19,19,18,18,18,18,19,19,18,19,18,19,18,18,19,18,18,18,18,18,19,19,19,18,19,18,18,18,19,18,18,18,18,18,18,18,18,18,18,18,18,18,18,18,18,19,18,19,18,19,18,18,18,19,18,18,18,17,18,18,17,18,18,17,18,18,17,17,17,18,17,18,17,17,17,17,17,17,17,17,17,17,17,17,17,17,17,17,17,17,17,17,17,17,17,17,17,17,17,17,17,18,18,18,18,18,19,18,18,18,19,18,18,19,18,18,19,18,19,18,19,18,19,19,18,19,19,19,19,18,19,19,19,19,19,18,18,18,18,19,18,19,19,19,19,18,19,19,19,19,19,18,18,18,19,19,19,19,18,19,19,19,19,19,19,19,19,19,19,19,19,19,20,19,19,19,19,19,19,19,18,18,19,19,19,19,19,19,19,18,19,18,18,18,18,18,18,18,18,18,18,19,18,18,18,18,18,18,19,18,18,18,18,18,18,18,18,18,17,18,18,18,17,18,18,18,18,18,18,18,18,18,19,18,17,17,17,17,17,18,18,18,18,18,18,18,17,17,17,18,18,17,18,17,18,18,18,18,19,18,18,18,19,18,18,18,18,18,19,19,18,19,19,19,20,19,18,19,18,18,18,19,19,19,18,19,18,18,19,19,19,18,19,19,19,19,19,19,18,18,18,18,18,18,19,18,18,18,18,19,19,19,19,19,18,18,17,17,17,18,18,17,17,17,17,17,17,17,17,17,17,18,17,18,18,17,17,17,16,17,17,16,16,16,16,18,18,18
60,60,60,61,60,61,60,60,61,61,61,61,61,61,61,61,61,61,61,61,62,61,61,60,61,61,61,61,61,61,61,61,61,61,61,61,61,61,62,62,61,61,61,61,61,61,61,61,61,61,62,61,62,61,61,61,62,61,61,61,62,61,61,62,61,61,61,61,61,61,61,61,61,61,61,61,60,60,60,60,60,60,60,60,60,61,60,60,60,60,61,60,60,60,60,60,60,60,61,59,60,60,60,60,60,60,60,61,60,60,60,60,61,60,60,60,60,60,60,60,60,61,60,60,60,60,60,60,60,60,60,60,60,60,60,59,60,60,59,60,60,60,60,59,60,60,60,60,60,60,59,60,60,60,60,60,60,60,60,60,60,60,59,59,59,59,60,59,60,59,59,60,59,59,59,59,59,59,60,60,59,59,58,59,59,59,59,58,59,58,58,59,59,58,59,59,59,58,58,59,58,59,58,58,58,58,58,58,58,58,59,58,58,57,58,58,57,58,58,57,58,57,57,57,57,57,58,58,58,57,58,57,57,57,57,57,57,57,57,57,56,57,57,56,57,57,57,57,56,57,56,56,57,56,56,57,56,57,57,56,56,56,56,56,56,57,56,56,55,56,56,56,56,56,57,56,56,56,56,56,56,56,56,56,55,56,55,55,55,56,56,56,56,55,55,55,55,55,55,55,55,55,56,55,55,55,55,55,55,55,55,55,56,55,55,55,54,55,55,54,55,56,55,55,54,54,55,55,55,55,54,55,55,55,55,54,54,55,54,54,55,54,54,54,54,54,54,54,54,55,54,54,54,54,54,54,54,54,55,54,54,54,54,54,54,54,54,54,54,54,54,54,54,55,54,55,54,54,54,55,55,55,55,55,56,55,55,55,56,55,55,56,55,56,55,56,55,55,56,55,56,56,56,56,56,55,55,56,55,55,56,56,56,55,56,55,56,55,55,56,55,56,55,56,55,55,56,55,55,55,55,55,55,56,55,56,55,55,55,55,55,55,55,55,55,54,55,54,54,55,55,54,55,55,55,55,55,55,55,55,55,55,55,55,55,55,55,55,55,55,55,55,55,55,55,55,55,55,55,55,55,55,55,55,55,55,56,55,55,55,55,55,55,56,55,55,55,55,55,56,55,55,56,56,55,56,55,55,55,55,55,56,55,56,55,56,56,55,56,56,55,55,56,56,55,56,55,56,56,56,56,56,56,56,56,56,56,57,56,56,56,57,56,57,56,56,56,56,56,56,56,56,56,56,56,57,56,57,56,56,56,56,56,56,57,56,56,56,56,56,56,56,56,56,56,57,57,56,56,56,56,56,56,56,56,57,56,57,56,56,57,57,56,56,56,57,56,56,56,56,56,57,56,56,57,56,56,57,56,57,56,56,56,57,57,56,56,56,57,56,57,56,57,57,57,56,57,56,57,57,56,57,57,57,57,57,57,57,57,57,57,57,57,57,57,57,57,57,57,57,57,57,57,57,57,57,57,57,57,57,57,58,57,57,57,57,58,57,57,57,57,57,58,57,58,57,58,58,57,57,57,58,57,57,57,57,57,57,57,57,57,57,57,58,57,58,57,57,57,57,57,57,57,57,57,58,58,58,57,57,57,57,57,57,57,57,57,57,57,57,57,57,57,57,58,57,57,57,57,57,57,57,57,58,57,57,57,57,57,57,57,57,57,57,57,57,57,57,57,58,58,58,58,58,60,60,60,60,61,61,62,62,63,63,62,62,62,63,63,63,62,62,62,62,62,62,62,62,62,62,63,62,61,63,62,62,63,63,62,62,62,63,62,61,62,62,62,62,62,61,61,61,61,62,61,61,61,60,60,60,60,61,60,60,60,60,60,60,59,59,59,59,59,59,59,59,59,58,58,58,58,58,58,58,58,58,59,58,58,57,57,57,57,57,57,57,57,57,57,57,57,57,57,57,57,57,57,56,56,56,57,57,57,57,57,56,57,56,56,56,57,56,56,56,56,56,56,56,56,56,56,56,56,56,56,56,56,55,56,55,56,55,56,56,56,55,56,56,56,56,55,56,55,56,56,56,56,56,56,56,55,55,56,55,56,56,55,55,56,56,55,56,55,56,56,55,56,55,55,55,56,56,55,55,56,56,55,56,56,55,55,56,56,56,56,55,55,55,56,55,55,56,56,56,55,55,56,55,55,55,56,56,55,56,56,56,56,55,55,53,54,53,54,54,54,54,54,54,55,55,55,55,55,56,55,56,55,56,56,56,56,56,56,56,56,56,57,56,56,57,57
17,17,17,17,16,17,17,17,17,17,18,18,17,17,18,17,17,18,17,17,16,17,17,17,17,17,17,17,17,17,17,18,17,17,18,17,17,17,17,17,18,18,17,17,18,17,17,17,17,17,17,17,17,17,17,17,17,17,17,17,17,17,17,17,17,17,18,18,18,17,17,17,17,17,17,17,17,17,17,18,18,19,17,18,18,17,18,18,17,17,18,17,17,17,18,19,17,18,18,18,18,18,18,17,18,19,18,19,19,19,18,18,18,19,19,18,18,19,18,18,19,19,19,18,18,19,19,18,19,19,19,18,18,18,18,18,19,18,19,18,18,18,18,19,18,18,18,18,18,19,19,18,19,19,19,19,19,19,19,18,19,19,20,20,20,20,20,20,19,20,21,20,20,19,20,19,20,20,20,20,20,19,20,20,19,19,19,18,19,19,20,20,19,19,19,19,19,18,18,19,18,18,19,19,18,18,18,18,18,19,18,18,18,18,18,18,18,18,18,19,18,18,18,18,18,18,18,17,18,18,19,18,18,18,18,18,18,17,17,17,17,17,17,17,17,17,17,17,18,17,17,17,17,17,16,17,17,17,17,17,17,17,17,17,18,16,17,17,17,16,16,17,17,18,18,17,17,17,18,17,17,17,17,17,16,17,18,17,17,17,16,17,17,17,17,17,17,17,16,17,16,17,17,16,17,16,16,17,16,16,17,16,17,17,16,16,16,16,17,17,17,17,17,16,17,16,17,17,17,17,17,17,16,16,17,17,16,17,17,16,17,17,17,17,17,17,17,18,18,17,17,17,17,17,17,17,17,18,17,17,17,17,17,17,17,17,17,17,17,17,17,17,17,16,16,17,16,17,16,16,16,16,16,17,16,17,16,17,17,16,17,17,16,17,16,16,17,17,17,16,16,17,17,16,16,16,16,16,16,16,16,16,17,16,16,17,17,16,16,16,16,17,16,16,17,16,16,17,17,16,16,16,16,16,16,16,17,16,18,17,17,17,17,17,17,17,17,17,17,16,17,17,16,17,17,16,16,17,17,17,17,17,17,16,17,17,17,17,17,19,18,18,18,18,18,18,18,18,18,18,18,17,17,18,17,17,17,17,17,17,17,17,19,19,17,17,18,18,17,17,17,18,17,18,17,17,17,17,18,17,17,17,17,17,17,17,17,17,17,17,18,17,18,18,17,17,18,17,17,17,17,17,17,18,18,18,18,18,17,17,18,17,17,17,16,17,17,17,17,17,17,17,17,17,18,17,17,18,17,17,18,18,19,18,18,18,18,18,18,18,18,18,17,17,18,19,19,18,18,18,18,18,18,18,18,17,17,17,18,18,18,18,18,17,19,18,17,18,18,18,17,17,18,19,18,18,18,19,19,19,18,18,18,17,18,18,19,19,18,18,19,19,18,18,19,18,18,18,18,18,19,18,18,18,18,18,18,18,18,18,18,18,18,18,19,18,18,18,18,19,18,18,18,18,18,17,18,19,18,18,18,18,18,18,18,19,18,17,18,17,18,18,18,18,17,17,17,17,17,17,17,17,17,17,17,18,18,18,18,17,17,17,17,17,17,17,17,17,17,17,17,17,17,17,17,17,17,16,17,17,17,17,16,18,17,17,17,17,16,16,16,16,16,16,16,16,17,19,18,17,18,18,18,19,19,18,18,18,17,18,19,18,18,18,18,18,18,18,18,18,18,18,18,18,18,19,19,18,18,19,18,18,18,18,18,17,18,18,17,18,18,17,18,17,19,18,17,19,18,18,18,19,18,18,18,19,18,18,19,19,18,18,18,18,18,19,19,19,19,18,19,19,19,19,19,19,19,18,18,19,19,19,19,19,19,19,19,19,19,20,19,19,19,19,20,19,19,19,19,19,18,19,19,18,18,19,19,19,19,19,19,18,18,19,18,18,18,18,18,18,19,18,19,18,19,19,18,18,18,18,18,18,18,18,18,17,18,18,17,18,19,18,17,17,17,18,17,18,17,17,17,18,17,17,17,18,17,17,17,17,17,17,17,17,16,17,17,16,17,17,17,17,17,16,17,18,18,18,17,18,18,18,17,17,17,17,17,18,18,17,17,17,17,17,17,17,17,17,17,17,17,17,17,17,17,17,17,17,17,17,17,17,17,16,17,17,18,18,18,18,18,18,18,18,18,18,18,18,17,18,18,18,18,18,18,18,18,17,18,18,18,18,18,17,18,18,18,17,18,18,17,17,18,17,18,18,18,18,18,18,17,17,17,17,17,18,17,17,17,18,17
57,57,57,57,57,57,58,57,58,57,57,57,58,57,57,57,58,57,58,58,58,58,58,58,58,58,58,58,58,58,58,59,59,58,58,59,59,58,59,58,58,59,58,58,58,59,58,59,59,59,59,59,58,59,59,59,58,59,59,59,59,59,59,59,59,60,59,59,59,59,59,59,59,59,59,59,58,59,59,59,59,59,59,59,58,58,59,59,59,58,59,58,58,59,58,59,58,58,59,59,58,58,58,59,58,59,58,58,58,58,58,59,59,59,58,58,58,58,58,58,58,59,58,58,58,58,58,58,58,58,58,58,58,59,57,57,58,58,58,58,58,59,58,57,58,58,58,57,58,57,57,57,57,57,57,57,57,57,57,57,56,57,57,57,57,57,57,57,57,58,56,57,57,57,56,57,56,56,56,57,56,56,57,56,57,56,56,57,56,56,56,56,57,56,56,56,56,55,56,56,56,56,55,55,56,56,56,56,55,55,55,55,55,56,55,55,56,56,55,55,55,55,55,55,55,55,55,55,55,55,55,55,55,55,55,55,54,55,54,54,55,55,55,54,55,55,54,54,55,54,54,55,54,54,54,55,54,54,54,55,54,54,54,55,55,54,54,54,55,54,54,54,55,55,54,54,55,54,54,54,54,54,54,54,54,54,54,55,54,54,54,54,54,54,54,54,54,54,55,55,54,55,54,54,53,54,54,54,55,54,53,54,54,54,54,53,53,54,53,54,53,54,54,54,54,54,53,53,54,54,54,54,53,54,54,54,54,54,54,54,54,54,53,54,54,53,54,54,53,54,53,54,53,53,54,54,54,54,54,53,54,54,53,53,54,54,54,53,54,54,53,54,53,53,54,53,54,54,53,54,53,54,54,53,54,54,54,54,54,54,54,54,54,54,54,54,54,54,54,54,54,55,55,54,54,54,55,54,54,54,54,54,55,54,54,54,55,54,55,55,55,54,54,55,54,55,54,55,55,55,55,55,55,54,55,55,55,55,56,56,57,57,58,59,58,59,59,58,59,59,60,59,59,60,60,59,59,60,59,60,59,59,60,60,60,60,59,60,60,60,61,62,61,63,62,63,63,63,62,62,63,62,62,63,62,62,62,62,61,62,61,62,62,62,62,62,62,62,63,62,62,62,62,61,61,62,62,61,61,62,62,61,61,61,62,61,61,61,61,61,61,60,61,60,60,60,60,60,60,60,60,60,60,59,59,59,59,59,59,59,59,58,58,59,58,58,58,58,58,58,58,57,57,57,58,57,58,57,57,57,58,57,57,57,57,57,58,57,57,57,57,56,57,57,56,56,57,56,56,57,57,56,56,56,56,55,57,56,56,57,55,56,56,56,56,56,56,56,55,56,56,56,56,56,56,56,56,56,56,56,56,56,56,56,56,55,56,55,57,56,56,56,56,56,55,56,56,56,56,56,56,57,56,56,56,56,56,56,56,55,56,56,56,56,57,56,56,56,55,55,56,56,56,56,55,56,55,56,56,55,55,56,56,56,56,56,56,56,55,56,55,56,56,56,56,56,56,56,56,56,56,56,56,56,56,56,56,56,56,57,56,56,55,56,56,56,55,55,56,56,56,55,55,56,56,56,56,56,56,56,55,57,56,56,56,56,56,56,55,56,57,56,56,55,56,56,55,56,57,56,56,57,56,56,57,56,56,56,56,56,57,55,55,55,56,56,56,56,56,56,56,55,56,57,57,56,56,56,55,56,56,56,56,57,56,55,56,56,57,56,56,56,56,56,56,56,56,57,57,58,58,57,58,57,57,58,58,58,58,58,58,58,58,58,59,58,58,58,58,58,58,58,59,59,59,59,58,58,59,58,58,58,58,58,59,58,58,58,58,58,58,58,57,58,58,58,57,58,58,58,58,58,58,57,57,57,57,57,58,57,57,57,58,58,57,57,57,57,57,57,58,57,57,57,57,57,57,57,57,56,57,57,56,56,56,56,57,56,57,57,56,56,56,57,56,56,56,57,56,56,56,56,56,56,56,56,56,56,56,56,57,56,56,57,56,57,57,56,56,56,55,56,56,56,55,56,56,56,56,56,56,56,56,56,56,56,56,56,56,56,56,56,56,57,57,56,56,56,56,57,56,56,56,56,56,56,56,57,55,56,56,56,56,55,56,56,56,56,56,56,56,56,56,56,56,56,56,56,56,56,57,56,56,56,56,56,56,54,54,54,54,54,54,55,53,55,55,55,55,55,55,56,56,55,56,56,56,56,56,56,56,56,56,56,56,56,57,57,57,57,57
18,17,17,17,17,17,17,17,18,17,17,17,18,17,17,16,16,16,17,17,17,17,17,17,17,17,17,17,17,16,16,17,16,16,17,17,17,17,17,17,17,17,17,17,17,17,17,17,17,16,17,19,18,17,17,17,17,18,18,18,17,17,17,17,17,18,17,18,17,17,16,17,17,16,16,16,17,17,17,17,17,17,17,16,17,17,17,17,17,16,16,17,17,16,16,17,16,16,17,16,16,16,16,16,16,16,16,16,16,16,17,16,17,16,16,16,16,16,16,17,17,17,16,17,17,17,17,17,17,17,17,17,18,17,18,18,18,17,17,17,18,18,18,17,18,18,18,18,18,18,18,17,17,19,18,18,18,17,18,18,17,18,18,18,18,17,17,17,17,17,17,17,17,17,17,17,17,17,17,18,17,18,17,17,17,18,17,18,18,17,17,17,17,17,17,17,17,17,16,16,16,17,17,17,17,17,17,17,16,17,17,17,16,16,16,17,17,17,16,16,17,17,17,17,17,16,16,16,16,16,16,16,16,17,16,17,16,16,16,16,16,16,16,16,17,16,16,16,16,17,17,16,16,16,16,16,17,18,18,18,17,17,18,19,19,18,19,17,18,18,18,18,18,18,18,17,18,18,18,18,18,18,17,19,19,18,18,18,18,18,17,18,18,17,17,17,18,18,18,18,18,18,17,17,17,18,17,17,17,17,17,18,18,18,17,18,17,17,18,17,17,17,17,16,16,17,17,17,17,17,17,17,17,16,17,16,16,17,17,17,17,18,17,17,17,16,17,17,16,16,16,16,17,18,17,17,17,17,17,17,17,17,17,17,16,17,17,17,17,18,17,17,17,17,17,16,16,17,17,17,18,18,18,18,17,18,19,18,18,18,18,18,18,17,18,17,17,17,17,17,18,17,17,17,17,17,17,17,18,18,18,18,17,19,18,17,17,17,17,17,17,18,18,18,18,18,17,18,18,18,18,17,17,17,18,18,18,19,18,17,17,17,18,17,17,17,17,17,18,19,18,19,18,18,18,19,18,18,19,18,18,18,18,19,19,19,18,18,18,18,19,18,19,18,17,18,19,19,19,19,19,19,18,19,18,18,18,18,18,18,18,18,18,19,18,18,18,19,18,19,18,18,18,17,18,18,19,18,18,18,18,19,19,18,17,17,17,19,18,18,18,18,18,18,19,19,19,19,18,18,18,18,18,19,19,19,18,19,18,18,18,18,18,17,17,18,18,18,18,17,17,18,18,17,18,17,17,17,18,18,17,17,18,17,17,18,18,17,17,17,17,17,18,17,18,18,18,18,17,18,17,17,17,18,18,17,17,17,17,17,17,17,17,17,17,17,17,17,17,18,17,17,17,17,17,17,17,17,16,16,16,16,17,17,17,17,18,17,17,18,17,17,17,17,17,16,17,17,18,18,17,17,18,17,17,17,17,17,17,17,17,18,18,18,19,18,19,18,19,19,18,18,17,18,18,18,18,18,18,17,18,17,18,18,18,17,17,17,17,18,18,17,17,17,17,17,17,17,17,16,16,16,17,18,19,18,18,18,18,18,18,18,17,18,17,18,18,19,18,18,19,18,18,19,19,18,18,18,17,18,19,19,19,19,19,19,18,19,18,18,18,18,19,17,18,19,18,18,18,18,18,18,18,17,17,17,18,18,18,18,17,17,17,18,18,17,17,18,17,17,18,18,19,18,17,18,18,18,19,18,17,17,18,17,18,17,17,18,17,17,18,17,18,17,17,17,17,17,17,17,17,17,17,17,17,17,17,17,17,16,17,16,18,17,17,17,17,17,17,17,17,17,17,17,17,17,18,19,20,18,19,19,18,18,19,18,18,19,18,18,19,19,19,19,18,18,19,19,18,19,18,18,18,18,19,18,18,18,18,18,18,18,18,18,18,18,18,18,18,18,18,18,18,18,18,18,18,18,17,17,18,18,18,18,18,18,17,18,18,17,17,17,17,17,18,18,17,18,18,18,17,18,17,17,18,17,18,16,16,17,18,17,17,17,16,17,17,17,17,16,17,16,17,18,17,17,17,17,17,16,17,17,17,17,16,16,18,18,18,18,17,17,18,18,18,17,18,17,17,17,18,18,19,18,18,18,18,18,18,18,18,18,18,18,18,18,18,18,18,18,19,19,18,18,18,18,18,19,19,19,19,18,18,19,18,19,19,20,19,21,20,19,20,19,19,19,19,19,18,19,20,19,19,19,19,19,19,18,18,18,18,18,19,19,18,19,18,19,19,18,18
57,58,57,58,57,58,57,56,57,57,57,57,57,58,58,58,58,57,58,58,58,58,58,58,58,58,58,58,58,58,58,58,58,58,58,58,58,58,58,58,58,59,58,59,59,58,59,58,58,59,58,59,58,59,58,58,58,58,58,59,59,58,59,58,58,58,59,58,58,59,58,58,58,58,59,59,59,58,58,58,58,58,58,58,59,58,58,58,58,58,58,59,59,58,58,58,59,58,57,58,58,58,58,58,58,58,58,57,58,58,58,59,58,59,58,58,57,57,57,58,57,57,57,57,57,57,57,57,57,57,57,58,57,58,58,58,58,58,58,58,58,59,58,58,58,58,58,58,58,58,58,58,58,58,58,58,57,58,58,58,58,58,58,58,57,58,58,57,57,57,57,57,58,57,57,57,57,57,57,57,57,57,57,57,57,56,57,57,57,56,57,56,56,56,55,55,56,56,56,56,56,56,56,56,56,56,56,56,55,56,56,56,56,56,55,56,56,56,55,56,55,55,56,56,55,55,56,55,56,55,56,55,55,55,55,55,55,55,55,55,55,55,55,55,55,55,54,55,54,54,55,54,54,54,54,55,54,55,54,55,55,55,54,54,54,55,54,54,54,54,54,54,54,54,54,54,54,54,54,54,54,54,54,55,54,54,54,54,54,54,54,54,54,54,54,53,54,54,54,54,54,53,54,54,55,54,54,55,54,54,53,54,54,54,54,54,54,54,54,54,54,54,54,54,53,53,54,54,54,54,54,54,53,53,54,54,54,54,54,54,54,53,54,54,54,54,54,54,54,54,54,54,54,54,53,53,54,54,53,54,54,54,53,54,54,54,54,54,54,53,54,54,54,54,54,54,54,54,54,54,54,54,54,54,53,54,54,54,54,55,54,54,54,54,54,54,54,54,54,54,54,54,54,55,54,54,54,54,54,54,54,54,55,54,54,54,54,55,55,54,55,55,54,54,55,55,55,54,55,55,55,54,55,54,54,54,55,55,54,55,54,54,55,54,55,55,55,55,55,55,56,56,56,56,56,56,57,56,56,56,56,56,57,57,57,57,58,56,57,57,58,57,57,57,58,58,59,58,58,58,58,58,58,59,58,59,58,58,58,58,58,59,58,58,57,59,58,58,58,58,58,58,58,58,58,58,57,58,58,57,58,57,58,57,57,57,57,57,57,57,57,57,57,57,57,57,57,56,57,57,56,56,56,57,57,57,56,56,56,57,56,57,56,56,56,56,56,56,56,56,56,56,56,56,56,56,56,56,56,56,57,56,56,56,56,56,57,56,56,56,56,56,57,56,56,57,56,57,56,56,56,56,56,56,56,56,56,56,56,56,56,57,57,56,56,56,56,56,56,56,56,56,56,56,56,56,56,56,56,56,56,56,56,56,56,56,56,56,56,56,56,56,56,55,56,55,56,56,56,56,56,55,56,57,56,56,56,56,56,56,55,56,56,56,56,56,56,56,56,56,56,56,56,56,56,56,56,56,56,56,56,56,56,56,57,56,56,57,56,56,56,56,56,56,56,56,57,56,56,57,56,56,56,56,57,57,57,57,57,57,57,56,57,57,57,57,57,57,57,57,57,57,56,57,57,57,57,57,57,57,57,57,57,58,57,58,58,57,57,56,57,57,57,56,57,57,56,57,57,57,58,57,56,57,57,56,56,56,56,56,56,56,56,56,57,57,57,57,57,56,57,57,56,57,57,57,57,57,58,57,58,57,57,57,57,57,57,57,57,56,57,57,57,57,57,57,57,57,57,57,57,57,56,56,57,56,56,56,56,56,57,57,57,56,57,56,57,57,56,56,56,56,57,57,57,57,57,56,57,57,57,57,57,57,57,57,57,57,57,57,57,57,58,59,58,59,60,59,59,59,59,60,59,59,59,60,60,59,59,61,60,61,60,60,59,60,60,60,60,60,61,60,60,60,61,60,60,60,60,60,59,59,60,59,60,59,60,60,59,60,59,60,59,59,59,59,59,59,58,59,58,58,58,58,58,58,58,58,58,58,58,58,58,58,57,58,57,58,58,57,57,57,57,57,57,57,57,57,57,57,57,57,57,56,57,57,56,57,56,57,57,57,56,57,57,56,57,56,56,56,57,57,57,57,56,57,57,57,57,57,57,57,57,57,57,57,57,56,57,57,57,57,57,57,57,57,57,57,57,57,57,57,57,57,57,54,54,54,54,54,54,55,55,55,55,55,55,55,56,55,55,55,56,56,55,56,56,56,56,57,57,56,57,57,57,57,57,57,57,57,57
18,18,18,19,19,19,18,19,19,20,20,19,19,18,18,19,19,19,19,19,19,19,19,19,19,19,20,19,19,19,19,19,19,19,20,20,20,20,20,20,20,20,19,19,19,19,19,19,20,19,19,19,19,20,19,19,19,19,20,19,19,20,20,20,20,19,20,20,19,20,19,19,19,19,20,19,19,20,19,20,19,19,19,19,19,19,19,19,19,19,19,20,19,20,19,19,19,19,19,19,19,19,18,19,18,19,18,18,18,18,18,18,18,19,18,19,18,19,20,20,19,19,19,19,20,20,19,19,19,19,19,19,19,19,19,19,18,18,19,18,19,19,18,19,19,18,19,19,18,19,19,18,18,18,18,18,18,18,19,19,19,19,19,19,18,18,18,18,18,18,18,19,19,19,19,19,18,18,19,19,18,18,18,18,18,19,19,19,18,19,18,18,19,19,18,19,19,19,18,19,19,19,18,19,18,18,19,18,19,18,19,18,18,18,19,18,18,18,19,18,19,18,18,18,18,18,18,18,18,18,18,18,18,18,18,17,17,18,18,18,18,18,17,17,17,17,17,18,18,17,18,18,17,18,19,18,18,18,19,18,18,18,18,19,19,18,18,19,19,19,18,18,19,18,18,18,18,18,19,18,18,19,18,18,18,18,18,18,18,18,18,18,18,18,18,19,19,19,19,19,19,19,18,19,18,18,19,19,19,18,19,18,18,19,18,19,19,19,19,18,18,18,18,19,19,19,19,19,19,19,19,19,19,19,19,19,19,20,19,20,19,20,20,19,19,19,19,19,19,19,20,20,19,19,19,19,19,19,19,19,19,19,19,19,19,20,19,19,19,19,19,19,19,19,19,18,18,18,19,19,19,19,18,19,19,18,19,19,18,18,19,18,19,20,19,19,20,18,19,20,19,19,19,18,19,20,20,19,20,19,19,19,19,19,19,18,19,18,18,19,19,19,19,18,18,18,18,19,18,18,18,17,18,18,19,19,18,18,18,18,18,18,18,18,18,18,18,18,18,18,18,18,18,18,17,17,17,17,17,18,18,18,18,18,18,18,17,17,17,18,17,17,17,17,18,18,17,17,17,17,17,17,17,17,17,16,18,17,18,17,17,18,17,17,18,18,17,17,18,17,17,18,18,18,18,18,19,18,18,19,17,18,18,18,18,18,18,19,19,18,18,18,19,18,18,18,18,18,18,18,18,18,18,18,18,18,18,19,18,18,18,18,19,19,19,19,19,18,19,18,18,18,18,19,19,18,19,19,19,19,18,18,18,18,18,18,18,18,18,18,17,19,19,19,18,18,19,18,18,19,18,18,18,18,18,19,18,19,18,18,18,18,19,19,18,18,18,18,18,19,19,18,18,18,18,18,18,18,18,17,17,18,18,19,18,18,19,18,19,18,18,18,18,18,18,18,18,18,18,17,18,18,19,18,18,19,18,18,18,18,18,19,18,18,18,18,18,18,18,19,18,18,18,18,18,18,19,19,18,18,18,18,18,18,18,18,18,18,18,18,17,18,18,18,18,17,18,18,18,18,18,18,18,18,18,19,18,19,18,18,18,18,19,18,18,18,18,18,18,19,17,18,17,18,18,19,18,17,18,18,18,18,18,18,18,18,17,18,18,18,17,18,18,19,18,18,18,18,18,18,19,17,19,18,18,19,19,19,19,19,18,18,19,18,19,18,18,18,18,19,18,18,19,18,18,18,18,18,18,18,18,18,18,19,18,19,18,18,18,18,18,19,18,18,17,17,18,18,18,19,18,18,19,18,18,18,18,18,19,17,18,18,18,18,17,18,17,18,18,18,17,17,18,17,17,18,18,17,19,17,18,17,17,17,17,17,18,18,18,19,17,17,18,18,18,17,18,17,17,18,17,17,18,17,17,17,17,17,16,16,16,16,17,16,17,17,17,17,16,17,17,16,17,17,17,16,16,17,16,16,17,17,16,16,17,16,16,17,17,17,16,17,16,17,18,17,17,17,17,17,18,17,18,17,17,17,17,18,18,17,17,17,17,17,18,17,17,17,17,17,17,19,18,19,18,18,17,19,18,18,18,19,18,18,19,18,19,19,19,19,18,18,19,18,18,18,18,18,19,19,19,18,18,18,17,19,18,18,18,18,18,18,18,18,19,19,19,20,19,19,19,19,19,19,19,19,19,19,19,19,19,18,18,16,17,17,18,17,18,17,17,17,17,17,16,16,16,16,17,17,16,16,16,17,17,17,17,17,16,16,16,16,17,16,16,16,17,16,16,16,17
57,57,57,57,58,58,58,58,58,58,58,59,58,58,58,58,58,58,58,58,58,58,59,58,58,58,58,58,59,59,59,59,59,59,58,59,59,58,58,59,59,59,58,59,59,59,59,59,58,59,59,59,59,59,59,59,59,59,59,59,59,58,59,59,59,59,59,58,59,59,59,59,59,59,59,59,59,59,59,59,59,59,59,59,59,59,59,59,60,59,59,59,59,59,59,59,59,59,59,59,59,59,59,59,59,59,59,59,59,59,59,59,58,58,58,59,58,58,58,59,58,58,58,59,58,58,59,58,58,58,58,58,58,58,58,57,58,58,58,57,58,58,58,58,58,58,58,58,58,58,58,57,57,57,57,57,57,57,57,58,57,57,57,57,57,57,57,57,57,57,56,57,57,57,57,57,57,57,57,57,57,56,57,56,57,56,57,56,56,56,56,56,56,56,56,56,56,57,56,57,56,56,56,56,56,56,56,56,55,56,55,55,55,56,56,56,56,55,55,56,55,55,56,55,55,55,55,55,55,55,55,55,55,55,55,55,55,55,55,55,55,55,55,54,55,55,55,54,55,55,55,54,55,54,54,55,54,54,55,54,54,54,54,54,54,54,54,55,54,54,55,54,54,54,54,54,54,54,54,54,54,55,54,54,55,54,54,54,54,54,54,54,54,53,54,54,54,54,54,54,53,54,54,54,54,54,54,54,53,54,54,53,54,54,54,54,54,54,53,54,54,54,54,54,53,54,53,54,54,54,53,54,54,54,54,54,54,54,53,54,54,54,54,54,55,54,54,54,54,54,54,55,54,54,54,54,54,54,54,54,54,54,54,54,54,53,54,54,55,55,54,54,54,54,54,54,54,55,54,54,54,54,54,55,54,54,54,54,54,54,54,54,54,54,54,54,55,54,54,54,55,54,54,55,54,54,55,55,54,54,55,54,54,54,54,54,55,54,54,55,54,55,54,54,55,54,54,55,54,54,54,54,54,55,54,55,54,55,55,55,55,54,55,54,55,55,55,54,54,54,54,55,54,55,55,55,54,54,55,54,54,55,54,55,55,55,55,55,55,55,55,55,55,55,55,55,55,55,56,55,55,55,55,55,55,55,55,55,55,55,56,55,56,55,56,55,56,56,55,56,55,55,56,56,57,58,58,58,58,59,59,59,59,59,59,59,59,59,59,59,59,59,59,60,59,59,60,59,59,59,59,59,60,59,60,59,59,60,59,59,59,59,59,60,59,59,59,59,58,58,59,58,58,58,58,59,58,58,58,58,58,58,58,57,58,57,57,58,57,56,57,57,57,57,57,57,57,57,57,57,57,57,57,57,57,57,57,57,56,57,57,56,56,57,56,56,56,56,56,56,57,56,57,56,56,57,57,56,56,56,55,56,56,56,56,56,56,56,56,56,55,55,55,56,56,56,55,56,56,55,56,55,55,56,56,56,56,56,56,56,56,56,56,57,56,56,56,56,56,56,56,57,56,56,57,56,57,56,57,57,57,57,57,57,57,57,58,58,57,57,57,58,57,58,57,57,57,57,57,57,57,57,57,57,57,57,57,58,57,57,57,57,57,57,57,57,57,56,57,57,56,56,57,56,56,57,56,57,57,56,56,56,57,56,56,56,57,56,56,56,56,56,56,56,57,56,56,56,56,56,56,56,56,55,55,56,56,55,56,55,56,57,56,56,56,56,56,55,55,55,55,56,56,55,56,55,56,55,56,55,56,56,56,55,56,56,56,56,56,56,56,55,55,56,55,55,56,56,56,56,56,56,56,56,56,56,56,56,56,56,56,56,56,56,56,57,56,56,56,56,56,57,56,56,56,56,56,56,56,56,57,56,56,56,57,56,56,56,56,56,55,55,56,56,56,55,56,55,56,56,56,56,56,55,56,56,56,56,56,56,56,55,56,55,56,56,55,55,56,56,56,55,55,56,55,55,56,56,56,56,55,55,56,56,55,56,56,55,56,55,55,56,55,55,55,55,56,56,55,55,55,55,55,55,56,56,56,55,55,55,55,56,56,56,55,55,56,55,55,55,55,56,55,55,55,55,55,56,55,56,56,55,55,55,55,55,55,55,56,55,56,56,55,55,55,55,55,55,55,56,55,55,55,55,55,55,55,55,55,55,55,55,56,56,56,56,56,56,56,57,56,56,56,56,57,57,57,57,57,57,56,57,57,53,53,53,54,54,53,54,54,54,55,53,54,54,54,55,55,55,55,55,55,55,56,56,55,56,56,56,56,56,56,56,56,57,56,56,57,57,56
17,17,16,16,17,17,17,17,18,17,17,17,17,17,17,17,17,16,16,17,16,16,17,17,16,16,17,16,16,16,16,16,18,16,17,17,17,16,17,16,16,16,16,16,16,16,16,17,17,17,16,17,16,17,16,17,16,16,17,16,16,17,16,16,16,16,16,16,17,16,16,16,16,17,16,16,17,16,16,17,17,17,16,16,16,16,17,16,18,16,16,17,16,16,17,16,17,16,16,16,16,16,16,16,16,15,16,16,16,17,16,17,15,15,17,17,16,16,16,16,16,17,16,16,16,16,16,16,17,16,16,16,16,16,16,16,16,16,16,16,16,16,16,16,16,16,16,16,16,16,16,16,16,16,16,16,16,16,16,16,17,16,16,16,16,16,16,16,16,16,16,16,16,16,16,16,16,16,16,16,17,16,16,16,16,17,16,16,16,16,16,16,16,16,16,17,17,17,17,18,17,17,17,17,17,17,17,17,17,16,16,18,17,17,17,16,17,16,17,17,17,16,17,16,16,17,16,17,17,17,17,17,17,17,16,17,16,17,18,17,17,17,16,16,16,16,17,16,17,16,16,16,17,17,18,17,17,17,16,16,16,16,17,17,17,17,17,17,16,16,17,17,17,17,17,16,16,17,16,17,18,17,17,16,17,17,16,17,16,16,17,16,16,17,17,17,16,18,17,17,17,17,17,16,16,16,16,16,17,17,17,17,17,17,17,17,17,16,16,16,17,17,17,18,17,17,17,17,16,17,17,17,17,17,17,19,18,18,18,18,17,17,18,18,19,18,18,18,17,18,19,19,19,18,18,18,18,18,18,18,17,18,18,18,18,18,19,18,19,18,19,18,18,18,17,18,18,18,19,19,19,18,18,18,17,18,18,17,17,18,18,18,18,18,18,17,17,17,17,17,17,17,17,18,18,18,18,17,17,17,17,17,17,17,17,16,17,17,17,17,17,17,17,16,16,17,16,17,17,17,16,18,17,17,17,17,17,16,17,17,17,17,17,16,17,17,17,17,16,17,16,17,16,16,16,16,16,16,16,17,16,17,17,16,16,16,16,17,16,16,16,16,17,17,17,16,16,17,16,16,17,16,16,16,16,16,16,17,17,17,17,17,17,16,17,17,16,16,16,16,17,16,16,17,16,16,17,16,16,16,17,17,16,16,16,16,15,16,16,16,15,15,15,15,15,15,16,16,15,16,15,15,16,16,17,16,16,16,16,15,16,16,16,17,16,16,17,15,16,16,16,16,16,15,15,17,16,16,16,16,16,16,17,16,16,16,16,16,15,16,15,16,15,16,16,17,16,16,16,16,17,15,16,16,17,16,16,16,16,16,15,16,15,16,15,15,16,16,16,16,16,16,16,16,16,16,16,17,15,16,16,16,16,16,17,16,17,16,16,16,16,17,16,16,16,16,16,16,16,16,17,16,16,16,16,16,16,15,16,15,15,15,16,15,16,15,15,16,16,15,15,16,17,16,16,15,16,15,16,16,15,16,16,15,15,16,16,17,16,15,17,15,15,15,16,15,15,15,16,16,16,16,16,16,17,15,16,16,15,15,15,16,16,15,16,16,16,16,16,16,16,16,15,16,15,17,17,16,17,16,16,16,17,16,17,17,16,16,16,17,17,17,17,17,17,17,17,17,18,17,17,18,18,17,18,18,18,18,17,18,17,17,18,17,18,17,18,18,18,18,19,18,17,17,18,18,18,18,18,18,18,18,18,18,18,19,17,18,18,17,18,18,18,19,18,18,18,18,18,18,18,18,18,17,18,18,18,18,18,17,18,18,19,18,18,19,19,19,18,18,18,18,18,18,19,19,19,19,19,19,18,19,18,18,18,18,18,19,19,18,18,19,19,18,19,18,18,18,19,19,19,19,18,19,18,19,18,18,18,19,19,18,18,18,18,18,18,18,18,19,19,19,18,18,18,18,18,18,18,18,18,18,18,18,18,18,17,18,18,18,18,18,19,19,18,19,19,18,18,18,19,19,19,19,19,19,19,19,19,18,19,18,18,19,19,19,18,18,18,19,18,18,19,19,18,18,18,18,18,18,18,19,19,19,19,18,19,19,18,19,19,19,19,19,19,19,19,19,19,19,19,19,18,19,18,19,18,19,18,18,19,19,18,19,19,19,18,19,18,19,19,19,19,18,19,19,18,18,18,19,19,16,17,17,17,17,17,17,18,17,17,16,17,17,17,16,17,16,17,17,16,17,16,16,16,16,16,16,16,17,16,16,17,16,16,17,17,16,16,17,16
57,56,56,57,57,57,57,57,57,56,57,57,57,57,57,58,57,58,57,57,58,57,57,58,58,58,58,58,58,58,58,58,58,58,58,58,58,58,58,59,58,58,58,58,58,58,58,57,59,58,58,58,58,58,58,58,58,58,58,58,58,58,59,58,58,58,59,58,58,58,58,58,58,58,58,58,59,58,58,57,58,58,57,58,58,59,58,57,58,58,58,57,58,58,58,57,58,58,58,58,57,58,57,57,57,58,57,58,57,57,57,57,58,58,57,57,57,57,57,57,57,57,57,57,56,56,57,56,57,56,57,57,57,56,56,57,57,56,56,56,57,56,56,56,56,56,56,56,56,55,56,56,56,56,56,56,56,55,55,55,56,55,55,55,56,56,56,55,55,55,55,56,55,56,56,55,55,55,55,55,55,55,55,55,55,55,55,55,55,55,55,55,55,56,55,56,57,57,57,57,56,56,56,57,57,56,57,57,57,57,57,57,56,57,57,57,56,57,57,57,56,57,57,57,57,57,57,57,57,57,57,57,57,57,57,57,57,57,57,56,57,56,56,57,57,56,57,57,56,56,56,57,56,56,56,56,57,56,56,56,55,56,55,56,56,55,56,56,55,56,55,55,56,56,55,55,55,55,56,56,55,55,55,55,55,55,56,55,55,55,55,55,55,55,55,55,55,56,55,55,55,55,55,55,55,55,55,55,55,56,55,55,56,55,55,56,55,55,55,55,55,55,55,55,55,55,55,55,56,55,55,55,55,55,56,55,55,55,55,55,55,55,55,54,55,55,55,55,55,54,55,54,55,54,54,55,54,55,55,55,55,55,55,55,55,55,55,55,55,54,55,54,55,55,54,55,54,55,55,55,55,55,54,55,54,55,54,54,54,55,54,55,55,54,54,55,55,54,54,54,55,54,54,54,54,54,54,54,54,54,54,54,54,54,54,54,54,54,54,54,54,54,54,55,54,54,54,54,54,55,55,55,54,54,54,54,54,54,54,54,54,54,54,54,55,55,54,54,54,54,55,54,54,54,55,54,54,54,54,54,54,55,54,54,55,55,54,55,54,54,54,54,54,54,54,54,54,54,54,54,54,55,54,54,54,54,54,54,54,54,55,54,55,54,54,54,54,54,54,55,54,54,54,54,55,54,55,54,54,55,55,54,55,55,55,54,54,54,54,55,55,55,54,54,54,54,55,55,54,54,54,55,55,54,55,55,55,55,55,55,54,54,55,55,54,54,54,55,54,55,54,54,54,54,54,54,54,54,54,55,55,54,54,54,54,54,54,54,54,54,54,55,54,54,55,54,55,55,55,55,55,54,55,55,55,55,54,54,55,56,55,55,54,55,55,55,55,55,56,56,56,56,57,57,56,56,57,57,56,57,57,57,57,57,57,57,57,57,57,57,57,57,57,57,57,57,57,57,57,57,57,57,57,57,57,57,56,57,56,57,57,56,56,57,57,56,57,56,57,56,56,56,57,56,57,56,56,56,56,56,56,56,55,56,55,56,56,55,55,55,56,55,55,55,56,56,55,55,55,56,55,55,55,55,56,56,55,55,55,55,55,56,55,55,55,55,55,55,55,55,55,55,55,55,55,55,55,54,55,56,56,55,55,56,56,55,56,55,55,56,55,55,56,56,55,55,56,56,55,56,57,56,56,56,56,57,56,56,56,56,56,56,56,56,56,56,56,56,56,56,56,56,56,56,56,56,57,57,55,55,56,56,56,55,55,56,55,55,55,55,55,55,56,55,55,55,55,55,55,55,55,55,55,54,55,55,55,55,55,55,54,54,55,54,54,54,54,54,54,55,55,54,54,54,55,55,54,54,54,54,54,55,54,54,54,54,54,54,54,54,54,54,54,54,54,54,54,54,54,54,54,54,54,54,54,54,54,54,54,54,54,54,53,53,54,53,54,54,53,54,54,54,54,54,54,54,54,54,53,54,54,54,54,54,54,54,53,54,54,54,54,54,54,54,54,54,54,54,55,55,55,55,55,54,55,56,55,55,56,56,56,56,56,56,55,56,56,55,57,56,56,56,56,56,56,57,57,57,57,57,57,58,57,57,57,57,57,58,57,57,57,57,57,57,57,57,57,57,57,57,57,57,57,56,57,56,56,57,58,56,56,56,56,56,56,56,56,56,55,56,56,56,56,56,55,55,55,56,55,56,55,54,54,54,55,55,54,54,55,54,55,55,55,55,56,55,55,56,56,55,55,56,56,56,56,57,56,56,57,57,57,57,56,57,57,57,57,57,57,58,57
17,17,16,18,16,17,17,18,17,17,17,18,17,17,17,17,18,18,18,17,18,18,17,18,18,17,17,17,18,17,17,17,17,17,17,17,17,17,17,16,16,17,17,17,17,17,17,17,17,17,18,18,17,17,18,17,17,18,18,17,18,18,17,17,17,17,17,17,17,17,17,17,17,17,18,18,17,17,17,17,17,17,17,17,17,19,18,18,18,18,18,18,18,18,18,18,17,18,17,18,18,17,17,17,17,17,17,17,17,17,17,17,17,17,17,18,17,17,16,17,17,17,16,16,17,17,16,16,16,17,19,20,21,22,23,25,28,30,30,33,36,36,37,37,37,37,38,36,37,37,37,37,37,36,36,36,36,35,35,34,34,33,33,32,32,32,32,32,31,31,31,31,30,30,30,30,29,29,29,29,29,29,30,29,29,28,28,28,27,27,27,26,26,26,25,26,26,26,26,25,25,25,24,25,24,24,25,24,23,24,23,24,23,24,23,24,24,24,24,23,23,23,23,24,23,25,26,27,28,29,29,30,30,29,30,29,29,29,28,28,28,28,28,28,27,27,27,27,27,26,25,26,26,26,26,26,25,26,25,25,24,25,24,24,25,25,24,24,24,24,23,24,24,23,23,23,23,23,22,23,23,23,22,22,23,22,22,22,22,22,22,22,22,21,22,23,22,23,22,23,23,22,22,22,22,24,22,22,22,22,21,22,22,22,22,22,22,21,21,22,21,21,21,21,21,21,22,21,21,20,21,20,21,21,20,21,20,19,20,20,20,21,21,21,21,21,21,21,21,20,21,20,21,21,21,20,21,21,20,20,20,21,20,20,21,20,20,20,19,19,20,19,20,19,20,19,19,19,20,19,20,19,19,19,19,19,19,20,20,19,20,20,20,20,21,20,19,19,19,19,19,20,20,20,19,20,19,19,20,20,20,21,20,20,20,21,21,20,20,20,20,20,20,20,20,20,21,21,20,21,20,21,21,21,21,21,21,20,20,20,21,20,21,21,21,21,21,21,21,21,22,22,21,22,22,21,21,22,22,21,21,22,22,21,21,21,21,21,22,21,21,21,20,21,22,22,21,22,21,21,22,22,21,22,21,21,22,22,22,23,22,22,22,23,22,23,22,22,22,23,23,23,23,22,22,22,22,22,23,22,22,22,23,23,23,23,22,22,23,23,22,22,23,22,22,22,23,23,22,23,22,23,21,22,22,23,22,22,22,22,22,22,22,22,22,22,22,22,22,22,23,23,22,23,24,24,23,23,24,24,24,24,23,23,23,23,23,23,23,23,22,24,22,22,23,23,23,23,23,22,23,23,24,23,23,24,23,22,23,23,23,23,23,24,23,22,23,22,22,22,22,22,22,22,23,22,22,22,23,22,22,23,22,23,22,23,22,22,22,22,22,21,21,22,22,22,22,22,22,22,22,21,22,21,21,22,21,22,22,21,22,22,21,21,21,22,21,21,21,21,21,21,22,22,21,21,21,20,21,21,20,21,21,21,21,22,22,21,22,22,21,21,21,21,21,21,21,21,21,21,21,21,21,20,21,22,20,21,21,21,21,21,20,20,21,20,20,20,20,21,21,21,20,20,20,20,21,20,20,20,20,20,20,20,20,20,20,20,20,19,19,20,20,20,20,20,20,20,19,19,19,19,19,19,19,19,19,19,19,18,19,19,19,19,19,19,19,19,18,19,19,18,18,18,19,19,18,19,18,20,19,19,19,19,18,19,19,18,19,19,19,19,18,20,20,19,19,19,19,20,19,19,19,19,19,19,19,20,19,19,19,19,19,19,19,18,19,18,19,18,18,19,19,19,19,19,19,19,19,19,19,18,18,18,19,20,19,19,19,18,18,19,18,18,18,18,18,18,19,19,19,18,18,18,18,20,19,18,18,18,18,18,19,19,19,19,19,19,19,20,20,20,19,20,20,20,19,20,19,20,18,19,19,19,19,19,18,18,19,20,19,19,20,19,19,19,19,18,18,19,18,18,18,19,20,20,19,19,19,19,19,19,18,19,18,18,19,20,20,20,19,19,19,19,20,20,19,19,19,19,20,20,20,20,19,19,19,19,19,19,18,19,19,19,20,19,19,19,18,19,18,18,18,19,18,18,18,18,19,19,18,18,18,18,19,18,18,18,18,18,18,18,18,18,18,19,18,19,19,20,20,20,20,20,21,20,20,20,19,20,20,20,20,20,20,20,19,20,19,20,19,20,21,20,20,20,19,20,20,21,20,20,20,20,20,19,20,20,20,19,20
57,57,58,58,58,57,58,58,58,58,58,58,58,59,58,59,59,58,59,59,58,59,58,59,58,59,59,58,59,58,58,59,59,58,58,59,59,59,59,59,59,59,58,58,59,59,59,59,59,59,59,59,59,59,59,59,59,59,59,59,59,59,59,59,59,59,59,59,59,59,59,59,59,59,59,59,59,59,59,59,59,59,59,59,59,59,60,60,59,59,59,59,59,59,59,59,59,59,59,59,59,59,59,59,59,60,59,59,59,58,59,59,59,59,60,59,58,58,58,59,59,58,59,59,58,58,58,59,58,59,58,58,58,58,58,58,58,58,58,58,58,58,58,59,58,58,58,58,58,58,59,58,59,59,58,58,58,58,58,58,58,58,59,58,59,59,58,59,58,58,58,58,58,58,58,58,58,58,58,58,58,58,57,57,58,58,57,57,57,57,57,57,57,57,57,57,57,57,57,57,57,57,57,57,56,57,57,56,57,56,57,56,57,56,56,57,56,56,56,56,57,56,57,57,56,55,56,56,56,57,56,56,55,56,56,56,56,56,56,56,56,57,56,55,56,55,56,56,55,56,56,56,55,55,55,55,56,56,56,55,55,55,56,55,55,56,55,55,56,56,55,55,56,55,55,55,56,55,55,56,55,55,55,55,55,55,55,55,55,56,55,55,55,55,55,55,55,54,55,55,55,55,55,55,55,54,55,55,55,55,55,54,54,54,55,55,54,55,54,54,54,55,55,54,54,54,54,54,54,54,54,55,54,55,54,54,54,54,54,54,54,54,54,54,54,53,55,55,54,54,54,55,55,54,55,54,54,54,54,54,54,54,54,54,54,54,54,54,54,54,54,54,54,54,54,55,54,53,54,54,54,54,54,54,54,53,54,54,54,54,53,53,54,54,54,54,54,54,54,53,54,53,54,54,53,54,53,54,54,53,54,54,54,54,54,53,54,54,54,54,53,54,54,54,54,54,54,54,53,54,54,54,54,53,53,54,55,54,54,54,54,54,54,54,54,54,54,54,54,54,53,54,54,54,54,54,54,54,54,54,54,54,54,54,55,54,54,54,54,54,54,54,54,54,54,53,54,54,53,54,54,54,55,54,54,54,54,54,55,54,54,54,55,55,54,54,54,54,54,54,54,54,54,54,55,55,54,54,54,54,54,54,54,54,54,54,55,54,55,55,54,54,55,55,54,54,55,54,54,55,54,55,55,54,55,54,55,54,54,54,55,55,55,55,55,54,55,55,54,54,54,55,54,55,55,55,54,55,55,55,55,55,55,54,56,55,55,57,56,57,58,58,58,58,59,59,58,59,58,58,60,59,59,59,59,59,59,59,59,59,59,59,59,59,59,60,59,59,59,60,59,60,60,60,61,60,60,60,60,60,60,60,60,60,60,60,60,60,59,59,60,60,59,60,59,59,59,59,59,59,59,59,59,58,58,59,59,59,59,59,59,59,59,59,59,58,59,58,58,58,58,58,58,58,57,58,57,58,57,57,58,57,57,58,57,57,57,57,57,57,57,57,57,57,57,57,57,57,57,58,56,56,57,56,56,57,56,56,56,56,56,57,56,56,56,56,56,56,57,56,57,56,57,56,57,56,55,56,56,56,56,56,55,55,55,56,55,56,56,55,56,56,55,56,55,56,56,55,56,55,55,56,55,55,56,55,56,56,56,56,56,55,56,55,55,55,55,55,55,56,55,55,55,55,56,56,55,55,55,56,55,55,55,56,56,55,56,56,55,55,55,55,56,56,56,56,56,56,56,55,56,55,56,56,56,56,56,56,56,56,57,56,55,56,55,56,56,56,56,55,56,56,56,56,56,56,56,56,56,56,56,56,57,56,57,56,57,56,56,56,56,57,56,57,57,56,56,56,56,56,56,57,56,57,57,57,56,58,56,56,57,56,57,57,57,57,57,56,57,57,57,57,57,57,57,57,57,57,57,57,57,57,57,57,57,57,57,57,57,57,57,57,57,57,57,57,57,57,57,57,57,57,58,57,58,57,57,57,57,57,57,58,57,57,57,58,57,58,58,57,58,57,57,58,57,58,57,57,57,58,58,58,58,58,58,58,58,58,57,58,58,58,57,58,58,58,57,58,58,57,58,58,57,58,58,57,57,58,57,57,57,58,58,57,58,58,58,57,58,58,58,58,57,57,58,57,58,58,58,68,67,67,67,67,68,68,68,68,69,69,70,70,70,70,70,70,70,69,69,69,69,68,68,68,69,68,68,68,68,68,68,67,68,67,67,66,66,67,66,66,67
20,20,21,21,20,20,20,20,20,20,20,20,20,20,20,20,20,20,20,20,20,19,20,20,20,20,20,19,20,20,21,21,21,21,20,21,21,21,21,21,21,21,20,21,21,21,22,21,20,21,21,21,21,21,21,21,21,21,21,21,21,22,21,21,21,21,21,21,21,22,22,23,22,22,23,22,22,22,22,22,22,23,22,22,22,23,22,23,23,22,23,23,23,24,23,23,24,23,24,24,24,24,24,24,24,25,25,25,25,25,25,25,24,25,26,25,25,25,25,25,26,25,26,26,25,26,26,25,26,26,26,26,26,25,26,26,27,26,26,27,26,28,28,27,27,27,27,28,28,28,28,28,28,29,29,29,29,29,29,29,28,29,30,29,30,29,29,29,30,31,30,30,30,30,30,31,32,31,31,31,30,31,31,31,31,31,31,31,31,31,32,31,31,30,30,30,31,31,30,30,30,30,30,30,30,30,30,29,29,29,29,29,29,28,28,28,28,28,28,27,28,28,28,28,28,27,27,27,27,26,26,26,27,26,26,26,26,26,25,25,25,25,25,25,25,24,24,24,24,25,24,24,24,23,24,24,24,24,25,23,24,23,24,24,24,24,24,23,23,23,23,23,23,23,22,23,24,25,23,24,23,23,23,24,23,23,23,23,22,23,24,23,24,24,23,24,24,24,24,25,24,23,24,24,25,24,24,24,24,24,24,25,24,24,24,23,24,25,25,25,25,23,24,24,24,23,24,23,24,24,24,24,24,24,24,24,24,23,23,24,23,23,23,22,23,23,23,22,23,22,22,22,22,22,22,22,23,22,23,22,23,22,22,22,22,22,22,21,22,21,21,22,22,22,22,22,23,21,21,21,21,21,21,20,21,21,23,22,22,22,22,21,22,22,21,21,21,20,21,21,21,21,21,21,21,21,21,22,21,21,21,21,21,21,23,24,24,23,23,23,23,24,23,23,23,22,23,23,24,23,23,22,22,23,23,23,22,22,23,22,23,23,23,23,23,23,23,23,23,23,23,23,22,22,24,24,24,23,23,23,23,24,23,23,22,23,22,22,23,23,23,22,22,22,23,22,23,22,22,22,22,22,24,24,24,24,24,23,23,23,23,23,22,24,22,23,24,25,23,24,24,24,24,25,25,25,25,24,24,26,25,25,25,25,26,26,27,27,27,27,27,27,27,27,28,28,28,27,28,28,28,27,28,28,28,27,28,29,29,28,29,28,28,29,29,29,29,29,28,28,29,31,30,31,31,30,31,32,32,33,33,33,32,33,34,35,35,35,35,35,35,34,35,36,36,36,37,36,36,38,38,38,37,38,38,38,38,38,38,38,37,38,39,39,39,39,39,39,39,39,39,39,39,39,39,41,41,41,41,41,41,41,42,43,43,43,42,42,42,43,43,43,42,42,42,42,43,42,43,43,42,42,42,42,43,43,43,42,42,42,42,42,42,41,41,41,41,43,42,43,42,42,41,41,41,41,41,40,41,40,41,41,41,40,40,40,39,39,39,39,38,38,37,37,37,38,39,38,37,37,37,37,37,37,36,36,36,35,36,37,37,36,36,36,36,37,37,35,35,35,34,34,35,35,34,35,33,33,33,35,34,33,33,33,33,33,33,33,32,32,32,32,32,33,32,32,31,31,31,32,32,31,31,30,30,31,30,30,30,29,29,29,28,29,29,29,29,29,28,28,28,28,28,28,27,27,27,28,28,28,28,27,27,27,27,27,26,25,25,25,26,26,27,26,26,25,25,25,25,25,24,25,24,25,24,26,27,26,26,25,25,25,25,26,25,25,25,24,24,25,25,25,25,25,25,25,25,24,24,25,23,24,23,24,25,24,24,23,24,23,24,24,23,23,23,23,23,24,24,24,24,23,23,23,22,22,23,22,23,22,22,22,22,22,22,22,23,22,22,22,22,22,22,22,22,22,22,22,22,22,22,22,22,22,22,22,22,22,22,22,22,22,21,22,22,22,23,23,23,22,23,23,22,22,22,22,22,23,22,21,22,22,22,22,23,22,22,22,22,23,21,22,22,22,22,22,23,22,22,22,23,23,23,23,22,23,23,22,23,23,23,22,22,22,22,23,23,23,23,22,23,23,23,23,23,23,24,24,24,24,24,24,25,24,25,25,25,25,25,25,25,25,25,25,25,25,25,19,19,19,19,19,19,19,19,19,19,19,19,19,19,19,19,19,19,19,20,20,20,19,19,19,19,19,19,19,19,20,19,20,20,19,19,19,20,19,20,19,19,19,20
66,66,66,66,65,66,66,66,66,65,65,67,66,66,66,66,66,66,66,66,66,65,65,66,66,67,66,67,67,66,67,66,66,66,66,66,66,67,67,66,67,66,66,66,66,67,66,66,66,66,66,65,66,66,66,66,66,66,65,66,65,65,65,65,64,64,64,64,64,64,64,64,63,63,63,63,63,63,62,61,62,62,63,62,62,62,62,62,61,62,62,62,62,62,62,63,62,62,61,61,61,61,62,61,61,62,61,61,61,60,61,62,62,62,63,63,63,63,63,62,62,62,62,62,62,62,62,61,61,61,61,61,61,61,61,60,61,61,61,61,61,61,61,61,61,61,61,61,60,60,61,60,61,61,61,61,61,61,61,60,60,60,60,60,60,61,61,61,61,61,61,61,61,62,61,61,61,61,61,61,61,61,62,61,61,60,61,60,60,60,60,60,60,60,59,61,59,60,59,60,60,60,59,59,59,60,60,60,60,61,60,60,61,60,61,60,60,60,61,60,60,61,60,60,60,59,60,59,59,59,59,59,59,59,59,60,60,61,61,61,61,62,62,62,61,62,61,61,61,62,62,61,61,61,61,61,61,61,61,61,61,61,61,61,61,61,61,61,60,61,60,61,60,60,60,60,62,63,63,64,64,64,64,64,64,64,63,63,63,64,64,65,64,65,64,64,64,64,64,64,63,64,63,63,64,64,64,64,64,64,64,64,64,64,64,64,63,63,64,64,64,64,64,63,63,63,63,63,62,62,63,63,64,63,63,63,64,64,63,63,63,63,62,62,62,62,62,63,62,62,61,62,62,61,61,61,60,61,61,61,61,62,61,61,61,60,61,61,60,60,61,60,60,60,60,60,60,61,60,59,60,60,59,59,60,60,60,60,60,60,61,60,60,59,59,59,59,60,60,60,60,60,60,61,61,62,62,62,62,63,63,63,64,63,64,64,64,64,64,64,64,63,63,63,65,65,65,65,64,64,65,66,65,65,66,66,67,68,69,69,69,69,68,68,69,69,69,69,69,69,70,70,71,71,71,71,70,70,71,71,71,71,71,71,72,73,73,74,73,73,73,73,75,75,75,75,75,76,76,77,77,78,78,77,76,76,76,76,76,76,77,76,77,78,77,78,78,76,77,77,77,77,77,77,76,77,77,77,77,77,78,78,79,80,79,79,80,79,80,80,81,80,80,81,80,79,79,79,80,79,78,79,79,80,80,81,81,81,80,80,82,82,83,83,83,83,83,83,84,84,84,83,83,83,83,83,83,82,82,83,83,83,83,84,83,83,82,82,82,82,82,82,82,82,83,84,84,84,83,84,82,83,83,83,83,83,83,84,84,84,85,84,84,84,83,84,85,84,84,83,83,84,84,84,85,84,84,83,83,83,85,83,83,83,82,82,82,83,83,82,81,82,82,83,84,83,83,83,83,84,85,85,85,85,84,84,83,84,85,83,84,84,84,86,86,86,85,85,84,84,84,84,84,84,84,86,85,87,86,87,86,86,85,86,87,88,87,88,87,87,87,88,89,90,90,89,88,89,90,90,89,89,88,88,89,89,90,89,89,90,88,88,88,88,87,87,87,87,88,88,90,90,89,89,90,90,90,91,90,90,89,89,91,91,91,90,90,91,91,90,91,91,91,90,90,90,92,92,91,91,90,91,91,91,91,90,90,90,90,91,91,92,93,91,92,91,91,91,92,91,92,90,91,91,92,92,92,91,90,91,91,92,91,91,92,92,93,94,94,94,93,93,93,92,93,93,93,92,92,92,93,94,94,94,93,93,93,92,92,92,92,91,92,91,92,92,92,93,92,93,92,92,92,93,92,91,91,91,92,93,92,92,91,91,90,90,91,90,90,89,89,89,89,89,89,89,88,88,87,88,88,88,87,87,87,88,89,90,89,89,89,88,88,88,88,88,87,87,87,88,88,89,88,88,87,87,87,88,88,88,88,89,89,89,89,91,90,90,90,90,89,90,90,89,88,89,88,88,89,90,90,89,89,89,89,89,89,88,87,87,87,88,88,88,88,88,87,88,89,88,88,88,87,87,88,89,89,89,88,88,88,89,89,89,88,88,88,88,89,90,90,90,90,89,89,89,89,89,89,89,88,90,90,91,92,91,90,91,90,92,92,91,92,91,90,91,90,91,91,91,90,90,90,91,91,91,91,90,90,90,90,90,90,90,90,89,90,89,90,90,90,90,90,90,90,91,91,90,90,90,90,90,90,90,90,90,91,91,91,91,91,90,90,89,89,90,90,90,90,90,91
19,19,20,19,19,19,20,19,20,19,19,20,19,20,20,20,20,20,20,20,19,20,21,20,21,19,19,20,20,20,19,19,19,19,19,19,19,19,19,18,19,19,19,19,19,18,19,19,18,19,18,18,18,18,18,19,19,18,18,19,19,18,18,19,18,19,19,19,18,18,18,18,18,18,18,18,18,18,18,18,18,18,19,18,18,19,18,18,18,18,18,18,18,18,18,18,18,18,17,18,18,18,17,18,17,17,17,17,17,18,18,18,18,18,18,18,18,18,18,18,18,18,19,18,18,19,19,19,18,18,18,19,19,18,18,18,19,18,18,18,19,19,19,18,19,18,18,18,18,18,19,19,18,19,18,18,18,19,19,18,18,19,18,18,18,19,18,18,19,19,19,18,18,19,18,18,18,18,18,18,18,18,19,18,18,18,18,18,18,18,18,18,18,18,18,18,18,17,18,18,17,17,17,17,18,18,18,18,18,18,17,18,18,18,18,18,18,17,17,18,17,18,18,17,18,18,18,18,17,18,17,17,17,18,17,17,18,18,17,17,18,17,17,17,17,17,17,18,18,17,17,17,18,18,18,18,18,18,17,18,18,19,18,18,18,18,18,18,18,19,19,18,18,18,18,18,18,19,18,18,18,18,18,18,18,18,17,18,18,18,18,18,18,17,18,18,18,19,18,18,18,18,18,18,18,17,17,17,17,18,17,17,17,18,18,18,17,17,18,17,18,18,17,17,17,17,17,17,18,18,18,18,18,18,18,18,18,18,17,18,17,18,18,19,19,19,19,19,18,18,18,18,19,19,18,18,18,18,18,18,19,18,18,18,18,18,18,19,18,18,18,19,18,18,18,18,18,19,18,18,18,18,19,18,18,18,19,18,18,18,18,18,18,18,18,19,18,18,19,19,19,18,18,18,18,18,18,18,19,19,18,19,19,19,19,19,19,19,19,19,19,19,19,19,19,19,20,20,19,19,19,20,19,20,19,20,19,19,19,20,20,20,19,20,19,20,19,19,19,20,19,20,20,20,20,20,20,20,20,20,20,20,19,20,19,19,20,20,20,20,20,20,19,20,20,20,20,19,20,20,20,20,19,20,19,20,20,20,19,19,19,19,19,19,19,19,19,19,20,19,19,19,19,19,19,19,19,19,20,20,19,20,20,20,19,19,19,19,19,19,19,20,20,20,20,20,20,20,19,19,19,19,19,18,18,19,20,19,19,19,19,19,20,19,19,19,19,19,19,20,19,18,19,18,18,19,18,19,19,18,19,18,18,19,18,18,19,19,18,18,19,18,18,19,18,18,18,20,18,19,19,19,19,19,19,18,18,18,18,19,19,19,19,18,19,19,19,19,18,19,19,19,18,19,18,18,19,19,19,19,18,18,19,19,18,18,18,18,19,19,19,19,19,19,19,19,19,19,19,19,19,20,19,20,19,20,20,20,20,19,19,19,19,19,19,20,20,20,19,19,20,19,20,19,19,19,19,19,19,19,19,19,19,20,19,19,20,19,19,19,19,19,19,19,19,19,19,19,19,19,20,19,19,18,18,18,19,18,19,19,19,19,18,19,18,19,18,19,19,18,19,19,19,19,19,18,18,18,19,18,18,19,19,19,19,19,19,19,19,19,19,19,19,19,19,18,19,19,19,19,19,19,19,19,19,19,18,19,18,19,18,19,19,19,19,19,19,18,19,18,18,19,18,18,18,19,19,18,18,19,18,18,18,18,19,18,19,18,18,18,19,18,18,18,18,18,19,19,18,18,18,18,18,18,18,18,19,18,18,18,18,19,18,18,18,18,18,19,18,18,18,18,19,18,18,18,19,19,18,19,19,18,19,19,18,18,18,18,18,19,19,18,18,18,18,18,19,18,18,19,18,19,18,18,18,19,19,19,19,18,19,18,19,19,19,19,19,19,19,19,19,19,19,19,19,19,19,19,19,19,19,19,19,19,18,19,19,18,19,19,18,19,19,19,19,18,18,19,18,19,19,19,19,19,18,19,18,19,19,18,19,18,18,19,19,18,18,19,19,18,19,18,18,18,18,19,18,19,18,19,19,19,18,18,19,18,19,19,18,18,19,19,18,18,18,18,18,19,18,18,18,18,17,17,18,18,18,18,18,17,17,18,19,17,17,17,17,18,19,18,19,19,19,18,18,16,17,18,18,18,18,18,18,18,18,18,19,18,17,18,19,19,19,18,18,18,19,18,18,18,18,18,18,18,18,19,18,18,18,18,17,18,17,17,17,18,17,17,18,17,17
