14,16,16,16,15,15,15,15,16,15,16,15,15,16,15,15,15,15,16,15,15,15,16,14,15,15,15,15,15,15,15,15,15,14,15,14,14,14,14,15,14,15,14,14,14,14,14,14,14,15,14,15,14,14,14,14,14,14,14,15,17,16,15,15,15,15,16,15,16,15,15,15,16,15,15,15,15,15,15,15,15,15,15,15,15,16,15,16,15,15,15,15,15,15,15,15,14,15,14,14,14,14,14,14,15,16,15,14,14,14,14,15,14,15,15,14,14,14,15,14,14,15,14,14,14,14,14,14,14,14,14,15,15,15,15,15,15,15,15,15,15,15,15,15,15,15,15,15,16,15,16,16,16,16,15,15,15,15,15,15,15,15,14,15,15,15,15,14,15,15,20,25,29,30,32,32,31,32,33,37,50,74,97,107,114,119,117,115,113,111,109,112,115,119,120,120,127,142,175,230,293,352,397,414,410,414,431,436,438,443,448,450,444,435,427,418,421,449,516,585,622,626,636,678,702,718,728,731,725,719,712,712,711,705,694,683,672,666,660,652,642,632,623,612,600,602,614,625,628,618,624,643,660,664,655,653,652,675,714,749,784,811,805,814,829,837,847,862,866,905,954,983,983,983,983,982,982,982,982,982,983,983,983,983,983,982,982,982,983,983,982,982,982,983,983,982,982,982,982,982,982,982,983,983,982,983,983,983,982,982,983,982,982,983,983,983,982,983,982,982,982,982,983,983,983,982,983,983,983,983,982,982,982,982,982,982,982,983,983,982,983,983,983,983,983,982,982,982,982,982,982,983,983,983,983,983,983,983,982,983,983,982,982,982,982,982,983,983,982,982,983,983,982,982,983,982,982,982,983,983,983,983,983,983,982,983,983,982,982,982,982,982,983,983,982,983,983,983,982,982,982,982,983,983,982,983,983,982,982,983,982,982,982,982,983,983,982,983,983,983,983,983,983,982,982,983,983,982,982,982,983,982,983,983,983,983,983,982,982,982,982,982,982,982,982,982,982,983,983,982,982,981,982,982,982,982,983,982,983,983,982,982,982,982,982,982,982,968,953,938,920,924,946,954,941,945,947,953,953,945,938,927,916,903,890,877,864,852,840,824,808,794,783,769,754,744,742,734,726,716,704,689,675,665,658,646,635,629,623,619,607,598,592,583,577,569,578,581,583,582,579,576,570,563,555,544,534,526,517,511,506,499,492,483,478,473,470,468,466,461,456,452,446,442,437,433,429,424,421,416,412,405,398,391,383,376,375,374,371,369,364,356,351,349,344,344,353,354,350,345,339,333,328,322,318,316,315,314,315,311,305,300,298,299,300,299,294,289,288,289,288,287,285,282,278,273,268,262,259,263,264,260,255,251,249,248,244,238,236,232,231,229,226,221,216,212,213,213,208,204,202,203,202,200,197,195,194,191,188,188,186,186,184,182,180,177,175,173,171,169,167,165,164,161,159,156,155,153,151,149,147,146,145,143,141,138,136,134,133,131,130,129,126,125,123,121,121,120,119,118,118,117,116,114,113,111,109,107,105,105,105,105,106,106,105,104,103,101,100,98,97,96,96,95,94,94,93,91,90,90,88,87,85,84,84,82,82,82,81,81,80,79,79,79,78,78,77,75,74,74,73,71,70,69,69,69,69,68,66,65,64,64,62,62,62,60,62,63,63,62,62,62,62,61,61,61,62,62,61,60,60,59,59,58,58,57,56,55,55,55,54,53,53,52,51,50,50,50,51,51,50,49,50,49,48,47,47,47,46,46,45,45,46,46,46,46,45,44,44,43,43,44,44,44,44,44,43,42,42,41,41,40,40,39,39,39,40,40,39,39,39,38,38,37,37,37,37,37,37,37,37,37,36,35,35,35,35,34,34,33,33,34,32,32,32,32,31,31,31,31,31,31,30,30,30,30,29,29,29,29,29,28,28,28,28,28,27,28,27,27,27,26,26,25,27,26,25,24,24,24,24,24,24,24,24,23,23,23,22,22,22,22,22,22,21,21,21,21,20,21,21,20,20,20,20,20,20,20,20,20,20,20,20,20,19,21,19,20,20,20,20,20,19,19,19,19,19,18,18,19,19,20,20,19,20,19,19,19,19,19,19,19,19,18,18,19,19,19,18,18,18,18,18,18,18,17,17,17,17,18,17,17,16,16,16,16,17,16,16,16,16,16,17,16,16,16,16,15,15,15,16,16,16,16,15,16,15,15,15,15,15,15,15,16,15,15,15,15,15,15,14,14,15,14,15,15,15,14,15,14,14
81,81,80,80,80,80,80,80,80,80,79,80,81,83,85,84,84,85,85,85,86,89,89,88,87,88,89,88,87,88,90,91,91,91,91,90,89,90,90,89,90,89,89,87,88,86,85,85,85,84,84,85,86,88,88,90,92,92,94,94,93,92,91,90,90,90,90,89,88,88,87,86,86,85,85,84,84,83,82,82,81,80,80,79,80,82,81,82,84,88,90,91,91,90,91,97,103,104,105,104,104,102,102,102,102,103,102,101,100,99,98,97,96,95,94,94,94,94,94,98,97,96,95,95,95,94,93,93,94,93,92,92,90,91,91,91,89,88,88,87,86,86,85,88,94,97,97,96,95,94,93,94,94,93,92,92,95,95,96,101,101,99,99,98,97,96,95,94,93,93,93,93,93,93,91,92,100,101,104,113,116,122,130,129,127,131,131,139,146,146,145,144,143,144,145,147,155,160,172,181,190,199,209,211,216,216,215,224,225,224,222,222,231,233,230,231,230,236,252,265,273,273,272,270,269,264,260,255,253,253,251,250,250,251,248,245,241,239,248,253,249,248,247,245,253,273,289,294,300,300,303,301,296,295,292,294,294,291,286,288,301,303,306,305,300,297,296,295,294,316,362,401,408,410,409,411,431,435,437,434,431,424,417,415,414,427,450,458,460,469,470,469,486,504,496,496,488,480,480,479,473,476,483,483,480,480,496,507,499,493,488,488,489,493,519,556,569,580,583,577,568,564,562,559,557,554,562,590,629,632,623,614,601,596,589,583,578,577,579,586,597,612,621,617,630,661,674,677,668,655,646,646,641,632,626,621,623,637,652,669,676,670,662,651,644,642,645,650,672,699,696,689,677,669,656,649,647,645,644,644,643,649,658,666,669,658,653,649,644,639,636,634,632,632,634,644,655,660,659,662,661,673,699,722,715,707,707,697,685,677,668,661,658,655,652,650,648,646,647,648,645,645,645,647,658,664,667,659,654,652,645,639,637,654,673,667,655,647,639,632,627,621,617,611,607,605,604,604,611,621,617,610,603,595,586,579,573,567,561,556,552,549,547,544,541,536,533,529,525,521,517,521,538,551,552,548,541,534,526,518,511,505,498,496,491,482,474,473,472,474,479,477,471,466,460,454,449,445,441,437,435,433,431,430,423,415,408,401,398,396,389,384,382,379,376,374,372,368,366,363,359,355,351,349,351,359,365,361,355,350,348,343,337,333,335,334,333,336,337,344,351,356,356,358,356,354,351,350,346,355,365,361,359,359,353,355,369,377,372,368,376,393,406,406,427,440,448,440,439,438,433,428,421,417,417,422,421,435,450,444,438,448,469,480,476,469,462,461,456,458,460,454,450,448,453,455,456,450,459,467,468,476,491,499,505,496,487,487,480,481,489,500,506,525,535,543,549,544,537,535,542,547,553,546,545,585,617,622,613,601,593,588,593,600,605,611,614,621,620,620,615,617,625,633,624,614,627,627,628,632,624,616,626,624,612,604,597,598,621,633,645,644,645,661,660,667,682,673,664,655,648,645,648,655,652,649,642,641,640,653,660,666,669,666,662,660,661,659,657,650,656,661,652,650,644,640,639,637,634,627,625,629,630,621,615,608,618,619,625,630,630,627,628,629,627,620,617,611,611,619,629,628,625,622,611,606,606,610,611,609,605,599,597,597,595,592,591,591,588,579,571,577,582,578,573,576,577,576,573,570,567,565,563,561,556,550,555,561,560,558,554,544,539,538,549,560,552,543,540,535,534,542,540,538,540,543,540,534,529,529,527,524,524,522,518,512,506,500,500,502,502,502,507,507,508,510,512,507,497,493,494,497,504,504,498,491,485,481,483,484,478,474,476,477,474,467,465,469,469,466,464,462,460,458,457,457,455,453,445,440,437,447,471,480,473,465,463,462,456,453,449,445,443,440,435,433,433,431,424,418,422,426,425,418,412,412,411,407,405,402,398,395,394,397,397,395,394,396,391,386,389,397,399,393,386,383,378,374,369,366,366,366,364,362,362,362,362,360,359,359,358,359,357,353,350,349,355,359,354,353,350,352,350,346,343,339,335,331,329,326,323,324,323,324,324,322,317,312,310,309,305,303,299,300,304,304,304,309,308,305,303,301,298,296,294,292,290,288,287,287,287,284,281,280,282,283,280,276,275,272,270,265,262,257,254,250,249,251,252,251,248,244,241,238,236,234,233,232,230,235,237,250,256,255,252,248,245,240,239,236,232,143,142,141,140,138,136,134,135,134,133,132,132,132,134,133,131,131,130,129,129
14,14,14,15,15,14,14,15,15,15,16,16,15,15,16,15,15,15,16,15,16,15,16,16,16,16,15,15,16,16,15,16,15,16,15,15,16,16,15,15,15,15,15,15,15,16,15,15,14,14,14,15,15,14,15,15,14,15,15,15,15,15,15,15,15,15,15,15,15,15,15,14,15,15,16,16,15,16,16,16,15,16,15,15,15,16,15,15,14,15,15,15,15,16,15,15,15,15,15,15,15,16,15,14,14,15,15,15,14,14,14,15,14,15,14,14,14,14,15,14,14,15,14,14,14,14,13,14,14,14,14,15,15,16,16,15,16,15,17,17,18,17,18,17,17,17,17,17,17,18,17,17,16,17,17,17,16,17,16,17,17,16,17,17,17,17,17,16,17,16,16,16,17,16,16,16,16,16,16,16,15,16,16,17,18,19,19,18,19,19,18,19,18,19,19,19,19,19,19,19,20,19,19,19,19,18,18,18,18,18,18,19,18,19,18,18,19,19,19,19,19,18,18,18,18,18,18,18,18,17,18,18,18,19,19,19,18,18,18,18,18,18,18,18,17,18,17,18,18,18,17,18,18,19,18,19,19,19,19,19,19,19,19,19,19,18,18,18,18,18,18,18,17,17,17,18,17,17,17,17,16,16,17,17,18,17,17,17,17,17,16,17,17,16,17,16,17,17,16,17,19,22,25,26,26,29,31,34,39,39,39,41,41,41,43,43,44,46,52,59,67,76,93,117,149,185,221,253,275,291,290,289,289,291,290,287,286,292,307,321,333,352,377,407,431,432,438,432,428,435,435,469,525,575,587,608,657,673,668,696,727,729,748,779,800,806,807,792,776,759,745,735,732,735,732,743,776,833,868,866,893,901,898,891,893,894,891,875,857,841,842,862,867,861,873,880,878,903,954,983,982,982,982,982,982,982,983,983,983,983,982,983,982,982,982,983,982,983,983,983,983,983,982,982,982,982,983,982,982,982,983,983,983,982,983,983,983,983,983,982,982,982,982,982,983,982,983,983,983,982,976,974,974,973,973,957,963,983,983,982,982,982,982,983,983,982,983,983,982,982,982,982,983,982,983,982,982,982,983,982,983,982,983,983,983,983,981,964,949,952,956,955,941,926,909,901,903,888,882,876,860,842,827,812,797,783,778,801,853,902,923,921,947,982,981,982,982,982,982,982,982,983,979,960,939,920,906,903,903,893,889,885,879,869,860,883,917,919,921,936,947,952,950,940,926,911,900,889,876,865,848,834,818,807,803,795,785,773,758,745,731,716,705,699,691,688,695,698,695,690,683,673,665,655,642,632,620,609,599,588,579,572,568,563,558,552,546,540,534,527,521,512,505,497,491,488,483,476,470,467,464,462,458,450,442,433,425,428,430,428,427,425,423,421,416,407,398,390,384,380,371,364,358,354,355,355,353,351,348,345,342,338,335,331,327,324,321,318,315,311,308,303,299,294,288,285,283,282,281,279,278,275,273,270,267,263,259,258,255,251,248,246,244,242,240,237,235,233,231,230,228,226,223,220,218,215,213,208,205,206,206,205,203,202,198,194,190,186,184,183,183,183,187,185,184,182,180,178,175,174,171,168,164,161,158,155,151,149,146,143,141,139,137,137,141,144,142,139,137,137,137,138,138,139,140,139,137,136,136,135,132,134,134,131,131,131,132,133,132,132,133,131,130,128,126,124,122,120,118,116,115,112,110,108,109,110,109,111,111,110,110,110,109,107,105,103,103,102,102,101,101,100,99,98,97,97,97,96,96,95,94,92,91,91,91,90,89,87,86,85,85,83,84,83,83,85,86,87,86,86,85,84,83,82,82,81,80,80,79,78,78,77,77,76,76,77,76,75,74,72,71,70,69,70,71,71,70,70,70,70,70,69,68,68,67,67,67,66,67,66,65,65,65,65,65,64,64,64,64,64,63,63,62,63,62,63,61,61,60,60,61,61,60,60,60,60,59,60,59,58,58,57,56,56,56,56,56,56,56,56,54,53,52,52,51,51,52,52,52,52,52,52,54,53,53,53,53,53,53,53,53,52,52,51,50,50,50,50,50,50,50,51,50,50,49,48,48,48,49,48,48,48,47,47,48,47,47,47,47,47,46,46,45,45,44,44,44,43,44,45,45,45,45,44,44,44,44,43,43,43,44,44,44,44,44,43,42,42,42,42,42,43,42,41,41,40,41,42,43,43,42,42,41,41,41,40,40,39,39,12,13,13,13,13,13,13,13,13,13,13,13,13,13,13,13,13,13,13,13,13,13
128,128,129,130,130,129,131,130,136,141,141,140,138,136,137,138,137,136,134,132,131,129,130,133,136,137,138,136,135,134,133,133,132,131,132,133,133,133,134,132,135,136,136,134,136,138,137,136,135,134,133,132,131,134,134,136,136,141,143,143,142,141,140,140,140,142,141,141,140,140,140,139,138,137,135,134,134,133,131,130,129,127,131,134,134,134,136,139,139,139,139,137,136,135,133,133,134,135,140,146,146,145,143,142,140,138,139,140,143,144,143,142,143,143,143,143,142,140,138,137,135,133,132,130,130,133,136,138,138,136,134,133,134,135,136,143,147,144,143,142,140,138,136,134,136,138,137,136,134,133,133,133,133,134,138,138,136,135,136,140,143,142,140,139,139,138,137,135,134,132,130,129,128,126,125,124,127,132,135,138,138,136,135,133,132,131,131,130,130,129,129,129,129,129,129,129,128,128,127,125,123,122,121,122,123,132,143,148,156,158,160,166,165,162,160,157,155,155,152,150,149,149,150,149,146,145,144,143,141,142,144,143,144,148,150,150,152,151,150,149,148,150,152,152,151,149,147,145,143,144,144,144,143,142,141,138,140,142,140,142,143,142,141,142,142,145,144,143,143,146,147,150,157,156,155,153,156,153,157,163,168,166,166,167,167,164,162,160,157,156,154,154,154,153,152,154,153,152,153,155,153,153,155,155,154,152,152,152,151,152,156,155,156,155,165,167,168,173,178,190,200,200,202,210,227,236,236,236,233,238,246,250,248,248,244,241,240,239,246,272,280,277,281,279,275,272,272,270,270,277,303,332,344,354,352,348,350,345,344,355,364,376,373,377,377,372,387,409,410,410,403,398,394,393,399,402,397,393,393,404,414,412,415,412,415,411,404,396,389,392,407,406,402,395,391,385,381,386,396,412,412,413,409,404,396,393,410,435,436,428,427,430,437,434,444,457,453,451,448,450,455,463,484,496,489,485,484,488,490,498,518,534,569,582,573,576,586,594,599,596,595,592,588,586,592,607,631,671,688,676,668,670,660,655,659,669,680,692,698,697,706,715,713,709,698,712,733,734,724,725,718,710,707,705,704,705,717,735,742,748,747,737,730,729,758,808,810,806,796,784,779,771,768,765,760,757,752,752,751,751,750,751,755,752,752,762,760,749,750,759,754,742,738,742,744,742,733,724,719,715,710,705,702,702,707,710,705,713,731,726,714,704,698,692,692,702,694,685,679,672,664,657,653,648,641,637,632,627,624,619,613,608,604,601,598,595,592,586,582,577,573,569,563,558,556,557,557,551,543,533,523,514,506,496,487,483,483,485,480,472,471,471,469,467,467,465,463,466,464,459,451,446,445,446,440,442,435,430,431,433,428,420,412,405,400,394,393,389,382,375,370,363,356,350,344,343,339,337,339,351,358,355,352,351,346,344,346,347,349,348,342,336,330,327,328,330,328,329,337,341,345,349,356,369,378,374,372,372,366,372,384,392,391,386,384,391,397,402,402,396,390,389,391,392,404,413,420,419,417,419,421,424,419,424,435,431,425,429,438,446,443,436,429,432,442,448,484,504,527,527,523,513,506,500,509,529,544,549,545,537,529,521,521,519,542,555,572,584,583,575,568,577,574,566,557,572,581,574,588,592,583,582,587,577,570,571,575,615,677,700,709,744,748,760,769,788,788,775,770,769,768,767,761,749,737,734,728,728,759,782,774,764,754,741,729,728,716,720,730,729,721,711,704,691,695,708,715,715,715,703,700,690,698,702,697,696,695,691,686,686,683,685,701,703,690,680,680,675,665,655,651,642,642,652,671,683,685,684,683,681,679,674,662,665,675,667,656,648,653,656,653,643,648,650,654,649,638,626,623,618,625,620,619,617,626,630,629,624,622,619,613,602,598,599,596,588,595,603,604,604,596,590,582,580,578,576,581,583,574,566,562,564,569,570,565,568,573,568,562,571,591,586,576,571,566,563,562,561,552,544,539,543,547,545,536,533,526,523,524,530,529,520,513,509,512,520,513,509,514,519,514,517,519,523,515,514,523,524,524,519,513,506,498,494,486,484,497,498,501,494,486,478,472,467,467,472,487,483,478,476,475,475,471,465,462,460,456,450,443,441,444,441,435,437,444,453,463,462,457,454,450,445,440,437,433,427,424,421,424,426,425,423,429,423,416,414,414,415,417,414,414,409,406,400,394,389,385,383,381,377,374,371,365,363,366,362,358,357,357,168,166,165,165,164,163,163,164,162,160,159,161,163,164,166,166,166,165,165,163,162,161
13,13,13,12,13,13,12,13,13,13,13,14,13,13,14,13,13,13,13,12,13,13,13,13,13,13,14,13,12,13,13,13,12,13,13,14,13,13,12,12,13,12,12,13,12,12,13,13,12,12,12,12,12,13,12,12,12,13,13,13,13,13,13,13,13,13,13,13,13,13,13,13,13,13,13,13,13,13,12,13,13,12,12,13,13,12,12,13,12,13,14,14,13,14,13,13,14,15,14,14,14,14,14,14,14,15,13,14,14,15,14,14,13,14,14,14,13,13,13,13,13,13,13,13,13,15,15,16,15,15,15,15,15,15,15,14,14,14,14,14,14,14,14,15,15,16,15,15,15,15,15,15,15,15,19,22,25,27,29,29,28,28,29,29,29,29,29,29,30,31,31,33,38,43,46,48,47,53,61,70,73,77,78,77,79,83,89,94,100,115,134,141,139,136,136,143,150,155,153,153,154,153,150,147,146,144,145,149,158,168,180,195,215,231,232,231,227,227,229,234,246,252,252,253,257,255,252,250,245,246,250,251,254,254,250,255,266,295,330,362,382,378,375,368,365,374,371,373,387,397,394,387,383,384,379,383,387,422,457,478,478,509,532,540,535,524,520,516,521,516,511,519,538,588,655,683,687,728,761,771,766,757,760,759,746,772,825,870,889,885,877,902,932,934,915,910,932,949,942,945,971,970,956,954,943,952,963,966,956,936,924,910,897,886,878,862,847,836,826,817,813,806,796,785,777,762,757,758,760,781,802,803,795,788,791,804,807,804,791,776,766,757,743,732,718,709,711,709,695,695,697,686,675,665,667,667,663,657,646,646,642,632,625,636,648,642,645,640,633,622,618,619,624,622,612,608,611,606,605,625,636,644,646,646,647,639,631,632,648,676,718,725,726,759,780,792,796,795,783,771,769,772,771,767,760,767,781,782,779,772,762,753,743,729,716,706,694,682,674,668,661,654,645,633,623,611,604,593,593,589,581,578,584,584,580,574,567,559,551,540,532,526,515,504,495,490,488,486,479,472,462,454,446,442,436,429,424,422,419,414,410,405,402,401,402,402,400,393,384,376,368,361,355,351,347,340,338,336,334,329,323,319,316,313,310,306,304,300,295,291,287,281,275,271,269,268,265,262,257,252,248,245,245,242,239,236,234,231,227,225,223,221,219,215,211,210,208,204,200,196,192,193,192,191,188,185,181,181,180,177,175,174,172,171,169,168,165,164,162,159,156,152,149,147,147,147,147,146,144,143,140,137,134,133,131,130,127,125,122,122,122,120,117,116,118,117,115,112,110,108,107,105,103,103,103,103,102,102,102,101,100,99,97,95,93,92,92,91,90,88,86,86,86,85,83,82,81,81,80,79,78,77,76,74,74,73,72,72,71,70,69,69,67,66,65,64,63,62,62,60,60,61,60,59,59,58,57,56,56,55,53,53,52,51,50,50,49,48,48,48,48,48,47,46,45,45,46,46,46,46,46,45,45,44,44,43,42,42,42,41,42,41,41,40,40,40,39,38,38,37,36,36,36,35,35,35,35,35,35,34,34,33,33,33,32,32,32,31,30,31,31,30,30,29,29,29,28,28,29,28,28,28,28,28,28,27,27,27,27,27,27,27,28,28,27,27,27,26,26,26,26,26,26,26,25,25,25,25,25,25,25,25,24,24,24,23,24,24,22,23,22,22,23,23,23,22,22,22,21,21,21,21,21,21,20,20,20,20,21,20,20,20,20,19,19,19,19,19,19,19,18,19,18,18,18,18,18,18,18,18,17,18,18,18,18,17,17,17,17,17,17,17,17,17,17,16,16,16,17,17,16,16,16,16,16,16,16,16,16,16,16,15,16,15,15,15,15,15,15,16,15,15,15,15,15,15,15,15,15,15,15,15,15,14,14,15,14,14,14,14,14,14,14,14,14,14,14,13,14,14,14,14,14,14,14,14,14,14,14,14,15,14,14,13,13,13,14,14,14,16,16,16,16,16,15,15,16,15,16,15,15,15,15,15,15,15,15,15,15,16,14,15,15,15,14,15,14,15,14,15,14,14,14,14,14,14,14,14,14,14,15,14,14,14,14,13,14,13,14,15,16,16,17,16,17,17,17,18,17,17,17,17,16,17,16,16,16,16,16,16,16,16,15,15,16,15,15,15,15,15,16,15,15,15,16,16,16,17,16,16,16,16,16,15,16,18,20,21,21,23,24,24,24,23,23,22,23,33,34,35,34,35,36,36,35,35,34,35,33,34,33,34,34,33,33,35,35,35,35,36,36
161,163,161,159,157,155,155,157,158,159,159,159,161,166,168,166,165,163,160,160,160,161,166,167,167,165,163,163,160,158,158,160,160,162,161,159,158,159,162,163,164,163,163,160,159,158,156,156,157,157,165,173,172,170,168,168,167,166,165,162,163,164,168,171,171,171,169,168,165,164,163,162,162,167,170,169,166,164,162,161,161,161,160,158,156,156,159,161,159,159,162,167,171,170,168,168,168,166,166,164,162,160,160,163,162,160,159,159,159,158,160,161,161,160,158,157,156,155,157,160,163,164,162,160,158,157,157,158,160,168,171,169,167,167,167,168,170,172,172,171,170,169,168,165,163,161,161,161,160,160,166,180,194,195,194,191,190,191,192,194,190,187,184,184,185,187,202,204,203,201,210,215,214,217,219,216,217,217,230,244,249,255,255,253,255,257,256,255,250,246,243,238,243,251,252,249,245,245,243,243,244,247,244,241,240,238,235,237,235,231,227,225,227,228,235,233,234,239,244,246,247,247,259,262,262,263,258,257,258,254,252,249,246,246,245,241,239,236,233,228,226,224,224,231,234,237,243,239,241,240,237,237,236,235,231,231,238,243,243,240,237,235,232,229,239,255,272,273,274,278,283,285,284,280,279,280,275,275,278,277,276,278,287,285,290,293,291,291,287,291,290,285,284,282,292,310,321,319,319,315,314,315,311,306,309,321,334,336,330,330,337,359,381,380,388,405,404,404,397,392,389,387,388,393,402,415,439,462,473,470,468,469,466,463,456,455,456,458,461,465,468,476,485,488,502,523,532,534,534,534,529,529,529,537,541,541,543,549,553,559,570,581,596,615,614,609,600,590,591,592,596,596,594,593,597,602,611,622,626,623,615,615,616,617,619,620,621,631,654,680,684,672,661,654,650,647,645,643,642,642,645,657,663,664,667,669,668,667,660,654,652,649,647,649,657,660,658,653,648,645,642,639,636,633,632,629,626,625,624,622,621,620,621,619,618,615,612,607,604,600,594,589,588,586,588,591,589,584,583,576,565,554,548,547,556,575,578,571,564,553,553,560,558,550,540,530,521,521,523,522,514,508,500,491,488,487,480,473,470,471,471,471,474,467,459,453,449,452,452,445,438,433,429,424,418,412,405,408,415,427,436,430,426,423,415,409,407,407,405,398,393,403,407,441,461,464,463,462,465,462,463,457,457,458,485,488,481,480,482,494,520,529,535,531,526,531,537,535,534,535,538,545,558,568,568,564,557,550,539,530,521,515,514,535,566,576,581,592,600,598,587,578,582,584,576,586,589,577,566,558,557,590,628,627,628,625,618,626,638,645,646,644,639,631,648,661,666,664,664,661,661,656,645,640,664,687,684,674,670,668,666,665,671,691,700,699,688,684,685,685,683,681,680,679,688,677,665,654,653,669,686,682,683,678,671,669,678,678,671,668,678,684,685,685,684,678,674,685,701,699,692,695,685,682,683,690,686,687,691,694,694,691,690,690,685,672,666,670,676,678,677,676,676,678,682,685,686,688,692,693,685,679,667,658,660,661,661,657,654,652,650,645,640,645,649,649,648,643,635,625,622,630,642,647,641,644,651,643,632,632,627,619,620,623,622,618,616,616,615,614,613,611,610,608,607,605,604,602,603,601,597,594,594,592,588,584,580,588,593,594,593,589,585,582,577,569,566,569,574,569,561,557,568,573,567,561,557,554,550,549,550,546,542,545,545,544,548,547,541,537,532,530,530,528,526,524,526,535,543,546,539,533,523,515,514,516,513,507,502,498,498,497,494,489,484,476,469,466,472,476,473,477,476,475,472,467,463,463,465,467,462,455,449,447,445,443,440,435,432,432,432,430,429,428,426,422,419,415,414,412,410,410,408,408,404,419,420,418,414,411,409,405,401,399,399,397,393,391,394,393,386,383,380,377,376,372,368,372,376,376,373,366,362,361,359,358,358,357,356,357,355,354,352,347,345,341,347,350,350,347,345,344,343,341,336,330,326,332,334,329,325,327,330,330,331,327,326,324,325,321,319,317,316,312,307,306,307,314,317,316,317,320,316,310,307,310,310,311,307,305,304,300,296,292,287,283,283,283,282,279,275,270,266,266,267,266,269,265,264,266,266,265,268,265,261,260,265,262,258,255,254,252,250,248,246,248,246,244,240,237,239,244,248,244,241,240,240,243,249,247,244,242,240,237,239,243,243,247,245,241,237,234,231,227,224,221,220,402,401,401,414,428,430,435,432,424,419,417,414,409,402,406,410,416,414,412,411,412,424,430,436
36,36,39,38,38,38,38,38,38,39,37,38,39,38,38,37,36,36,36,35,35,34,34,33,33,32,33,32,32,31,31,31,30,29,30,29,29,29,29,28,28,27,27,27,27,27,28,27,27,28,27,27,27,28,29,29,28,28,28,28,27,27,27,26,26,26,29,30,33,38,43,45,45,45,45,44,46,47,47,48,47,48,49,50,57,62,63,63,62,60,60,61,60,60,59,58,58,57,57,55,55,55,55,54,54,52,51,50,50,49,48,47,47,47,47,47,46,45,44,44,42,42,41,42,44,46,46,46,46,45,50,57,60,59,61,64,64,63,66,65,66,67,68,69,74,78,79,79,81,80,80,83,84,83,83,86,88,87,86,86,87,88,87,87,90,95,99,98,102,105,104,113,124,134,137,136,136,137,135,135,138,139,137,139,148,158,159,165,174,175,174,172,172,171,168,167,164,161,161,161,160,158,159,159,157,155,162,174,187,194,202,208,206,208,206,207,213,213,217,218,226,234,233,243,253,259,258,261,257,256,267,288,305,319,322,314,313,322,318,321,344,381,405,404,399,395,392,387,392,394,387,380,373,366,366,374,374,372,367,373,384,392,394,387,390,400,409,409,401,394,386,384,381,373,367,362,355,349,344,349,352,350,355,353,349,350,351,344,340,344,354,367,372,368,372,371,375,376,389,424,451,455,471,480,490,491,486,477,469,461,451,444,445,442,435,432,433,428,424,430,427,427,443,463,471,476,501,515,515,505,498,493,495,487,482,509,542,567,566,568,572,591,602,596,584,571,563,573,572,559,554,546,539,538,531,534,549,568,563,554,547,579,633,657,667,708,736,748,747,741,737,736,732,722,714,746,785,806,821,825,819,849,870,876,878,873,858,843,835,820,802,786,773,762,752,737,724,719,727,728,723,712,705,716,737,751,756,744,737,744,742,771,815,823,816,838,865,876,877,877,872,872,868,860,848,833,818,803,789,773,769,783,792,786,786,787,779,779,777,772,764,755,745,734,723,711,700,687,675,663,652,641,628,615,602,591,583,572,565,560,553,544,534,526,518,511,502,492,481,471,462,457,456,452,445,437,428,420,412,404,396,394,393,384,376,369,364,359,360,363,363,361,358,354,350,343,337,331,328,326,320,314,307,302,295,292,290,287,281,276,270,270,268,281,290,288,289,287,285,282,284,290,293,292,287,285,283,279,280,281,278,276,271,267,263,258,253,248,243,243,244,242,237,232,227,225,231,236,236,237,245,246,242,239,235,232,232,230,227,223,221,218,216,214,211,208,204,201,197,193,190,186,183,181,178,174,171,169,168,167,164,161,159,156,152,150,148,146,144,140,138,136,135,134,133,132,130,127,126,124,122,121,118,115,113,112,111,109,108,105,104,105,103,102,100,99,98,97,95,94,93,92,91,89,87,86,85,85,85,84,83,83,82,81,79,78,76,75,76,75,75,74,73,72,72,72,70,69,68,67,67,67,66,65,64,64,63,63,62,62,63,63,61,61,61,61,62,60,59,58,58,58,59,59,57,56,56,55,54,53,53,54,54,53,54,54,54,53,52,51,51,50,50,49,48,48,47,47,46,46,45,45,44,44,43,42,42,41,41,41,40,41,42,40,40,40,39,38,38,37,37,36,36,36,35,36,36,37,36,38,40,41,41,41,40,40,39,39,40,39,40,39,39,38,38,37,37,36,35,36,35,36,35,35,35,35,35,34,34,34,33,33,33,33,33,33,32,32,32,31,30,30,32,31,30,30,29,29,30,32,32,31,31,31,31,30,30,30,30,30,30,29,29,29,28,28,29,29,29,28,28,28,27,28,29,29,29,28,29,29,28,28,27,27,27,27,27,26,25,25,25,25,24,24,24,24,24,24,23,23,23,23,23,22,22,22,22,22,22,22,24,24,25,26,26,27,27,26,26,25,25,25,25,24,25,25,24,24,24,24,24,23,23,22,23,22,22,22,22,22,23,22,22,22,22,21,21,21,21,21,20,20,20,20,20,21,20,20,20,20,20,20,21,21,22,21,22,26,25,25,26,26,26,26,26,25,25,24,24,23,24,24,23,23,23,23,22,22,22,22,22,21,21,21,21,21,20,21,20,20,20,20,20,19,19,19,19,19,19,18,19,18,18,18,18,19,18,18,17,17,17,18,17,17,18,18,18,18,18,18,18,18,18,18,18,17,17,17,18,17,17,17,17,18,18,15,16,15,15,16,16,15,16,15,15,15,15,15,15,15,15,14,15,15,14,14,14,15,15,14,14
428,421,418,423,421,421,418,417,417,423,448,449,448,447,439,433,430,425,422,419,417,424,429,425,429,433,443,443,435,430,428,423,417,412,411,424,427,424,425,418,414,409,409,410,415,416,409,403,400,400,400,394,392,387,381,377,372,367,360,354,348,343,337,332,327,324,329,328,330,326,326,327,327,332,343,346,358,359,369,365,359,354,348,345,351,363,360,363,364,365,364,360,356,356,354,359,360,355,353,351,348,345,339,334,332,330,330,327,321,316,311,311,309,306,304,302,301,302,299,295,293,293,288,285,281,277,277,274,271,273,277,281,282,285,290,295,296,295,293,295,297,296,297,302,300,296,299,302,300,296,295,299,298,297,297,297,297,297,309,331,352,365,364,375,377,375,378,379,388,397,396,390,384,382,385,389,388,382,388,404,406,412,419,448,451,450,455,452,448,445,438,430,423,431,428,427,435,444,444,445,451,457,450,459,465,465,459,454,452,446,440,438,444,459,473,490,491,484,480,494,501,505,523,524,524,514,512,519,527,533,540,551,556,557,556,558,555,549,549,554,561,564,564,564,565,565,566,571,573,571,572,577,584,587,588,591,600,608,605,601,599,600,603,608,609,617,627,626,626,618,620,625,634,650,653,644,634,627,619,607,599,600,607,611,614,614,612,613,606,597,590,588,593,605,600,595,591,581,577,575,577,575,567,563,567,580,584,578,570,566,564,565,567,566,568,579,600,621,630,635,641,637,632,625,620,626,640,649,642,643,646,653,655,655,650,650,655,679,701,704,695,688,684,686,689,701,718,720,713,705,700,696,698,702,714,733,736,728,722,727,740,753,763,768,769,771,765,751,743,738,733,728,726,730,738,747,753,745,756,781,776,761,749,738,730,725,722,720,720,718,724,731,745,761,751,736,724,714,708,702,696,692,690,686,695,718,725,715,703,693,687,687,687,687,694,699,691,681,672,665,656,648,642,636,629,624,618,614,613,610,610,621,627,620,612,603,594,587,581,575,571,566,560,555,550,546,542,536,532,527,522,513,503,494,485,483,487,489,487,484,485,490,488,491,497,496,491,483,488,483,481,472,464,458,470,493,501,495,490,483,482,477,485,488,497,493,491,482,473,465,464,460,452,448,446,440,438,437,454,472,485,485,481,492,498,495,494,496,492,484,481,503,524,519,513,512,550,577,578,570,565,562,561,554,552,555,551,549,570,586,583,575,578,588,595,595,598,605,621,650,647,647,648,639,637,647,670,663,660,677,679,671,660,665,692,691,713,725,726,736,757,758,752,757,747,738,741,737,730,721,733,731,765,790,784,784,783,778,770,759,747,737,734,728,717,720,733,735,749,744,739,749,747,746,745,738,730,724,715,708,709,707,696,705,710,697,691,706,700,694,683,677,673,679,672,666,664,663,651,645,659,654,652,648,667,702,722,717,704,691,679,671,669,671,670,664,653,649,649,641,634,634,630,627,632,627,615,608,614,623,622,612,607,604,595,601,597,604,606,607,605,595,584,574,571,582,590,597,598,594,590,587,585,579,569,561,566,572,575,569,577,578,572,566,565,563,559,549,552,558,561,558,550,549,552,547,543,543,545,544,540,535,533,535,538,533,526,524,531,532,549,557,550,549,555,556,554,552,572,574,564,554,548,545,542,540,538,530,521,519,517,525,530,521,518,519,522,524,527,526,522,520,518,516,514,507,502,502,522,520,515,524,522,516,508,499,491,483,483,489,501,508,509,506,501,496,494,494,493,489,485,480,479,479,483,478,471,473,479,475,467,459,460,463,464,465,465,465,464,463,461,460,456,452,445,444,454,462,463,460,455,451,451,454,463,463,459,460,462,454,453,459,457,450,451,457,457,452,445,438,439,438,432,435,440,438,430,424,421,422,421,419,420,419,416,413,412,407,402,404,412,418,416,415,414,412,410,414,417,416,411,411,408,405,401,403,400,395,394,391,385,379,373,368,364,365,376,377,373,374,370,367,373,380,378,373,371,369,366,365,364,363,361,357,351,348,350,351,354,355,356,354,351,351,347,352,376,380,373,368,362,358,354,352,352,349,347,345,343,337,331,329,328,332,332,330,326,322,319,325,329,323,319,313,309,305,305,312,315,315,315,320,325,327,326,322,318,314,314,318,319,313,310,312,310,307,302,297,293,289,286,284,279,275,277,276,273,270,266,262,260,260,257,253,252,250,254,254,255,255,255,267,268,286,291,196,203,209,206,209,209,216,215,215,213,214,214,214,213,211,209,207,205,203,200,198,195,194,195,196,195
14,14,14,14,14,14,14,14,14,14,14,14,14,14,14,13,14,13,14,14,15,16,18,17,17,17,18,18,18,18,18,18,18,17,17,17,17,18,17,18,17,17,17,18,17,17,17,17,18,18,18,18,18,18,18,18,17,18,18,17,18,17,18,18,18,17,17,17,17,17,17,17,17,17,16,16,17,16,16,16,16,15,16,16,16,17,16,16,16,16,16,17,16,16,15,15,16,16,15,15,15,16,15,15,15,15,15,15,15,15,15,15,15,15,15,15,16,15,14,14,15,15,14,15,15,15,15,14,14,15,16,16,16,18,18,18,19,18,18,18,17,18,18,17,17,18,18,18,17,17,17,17,17,16,17,17,17,17,17,16,16,17,16,17,16,16,16,16,16,16,16,16,16,15,15,16,16,15,17,16,15,16,15,15,15,15,15,15,15,15,14,16,15,15,15,15,15,15,15,15,15,15,15,16,15,16,16,15,16,15,15,15,15,17,19,21,22,26,28,28,28,28,28,27,27,27,27,27,26,26,27,26,26,25,25,24,24,24,24,23,24,23,23,23,23,23,23,23,23,22,23,23,22,22,22,22,22,22,21,21,21,21,20,20,21,20,20,20,20,19,20,20,19,19,19,19,19,19,18,19,18,18,18,18,18,17,17,18,17,17,17,18,18,17,17,17,16,17,17,18,19,19,19,20,21,21,21,21,20,21,21,21,22,23,23,24,23,23,23,27,32,39,42,42,41,42,43,48,52,55,55,58,60,61,61,60,62,61,63,65,65,69,72,73,72,74,79,81,80,80,79,79,80,79,80,83,87,89,90,92,94,99,99,99,102,103,103,102,105,110,126,145,164,175,174,180,187,191,193,190,196,213,234,250,250,247,243,239,245,249,244,241,245,253,255,250,254,258,255,254,256,254,255,272,292,305,309,307,308,310,317,313,315,327,337,334,346,355,363,365,361,354,350,353,353,355,365,367,364,361,370,368,371,411,464,499,500,523,538,535,530,528,516,507,504,500,491,484,478,470,463,465,479,490,486,485,486,488,479,474,466,458,458,464,459,453,463,468,459,452,456,458,448,444,449,448,447,450,451,451,444,447,453,450,450,452,452,446,437,427,423,445,475,490,489,491,480,472,473,483,491,493,488,481,481,482,476,468,460,454,449,451,456,455,450,445,438,428,419,410,403,399,392,385,386,400,418,425,426,439,439,437,438,442,443,441,433,424,416,409,403,403,404,402,401,397,392,391,388,388,382,374,372,370,368,375,391,401,401,413,424,429,430,422,417,410,405,401,393,390,394,395,393,390,386,381,377,372,366,358,353,348,345,339,339,345,345,342,339,334,330,327,327,322,316,311,311,308,302,297,293,288,292,289,286,283,282,282,278,277,283,287,293,295,295,295,293,297,315,340,349,350,365,373,377,380,380,377,373,368,365,358,351,348,343,336,333,335,334,332,326,325,337,367,404,428,429,441,468,479,488,491,490,488,485,480,473,463,455,447,438,437,435,428,423,415,408,408,412,406,405,406,404,396,393,396,399,398,399,397,394,389,384,378,370,364,359,355,351,344,338,333,328,323,318,312,308,304,301,297,293,287,280,275,270,265,263,260,256,257,259,255,251,250,254,251,247,247,249,249,252,256,256,253,256,262,258,254,250,249,245,244,244,245,248,245,242,243,242,237,236,233,230,226,227,226,223,224,226,225,228,226,233,240,249,266,266,264,261,260,255,250,250,271,273,279,288,310,308,302,296,292,291,293,298,299,296,291,285,279,274,271,275,278,275,272,268,263,259,256,252,248,242,239,237,233,228,223,218,215,211,209,205,202,199,195,191,188,185,182,180,176,172,169,166,163,161,162,161,160,158,155,153,151,149,147,144,142,140,138,136,133,131,130,128,126,124,127,134,141,146,153,156,156,156,155,154,151,149,147,145,144,140,139,140,140,139,144,144,143,142,140,139,138,136,133,131,132,131,130,131,131,130,127,125,124,121,119,117,116,115,113,112,111,111,110,108,107,104,102,100,99,98,97,96,94,94,92,90,89,88,86,85,83,82,83,82,82,83,83,84,83,82,81,80,80,78,77,76,75,74,73,71,70,70,69,67,67,67,66,65,64,64,63,63,63,63,62,61,61,63,64,64,64,65,65,64,63,62,62,62,62,63,63,63,62,62,61,60,59,58,57,56,56,55,54,53,52,52,50,51,50,50,15,14,15,15,14,15,14,13,14,15,14,14,14,14,14,14,13,14,14,14,14,14,13,13,14,14,14,14
195,194,193,192,193,192,189,187,185,183,191,196,193,190,188,189,188,186,191,202,201,204,206,204,201,200,197,195,193,192,192,191,190,187,183,181,185,193,197,195,193,192,191,191,192,193,204,214,216,216,218,220,219,223,227,228,225,222,220,222,227,225,222,219,222,226,225,222,221,218,219,217,214,216,218,221,221,221,220,220,218,214,212,210,209,212,213,212,212,213,213,213,212,210,211,221,223,219,217,215,214,210,208,210,211,210,209,211,210,211,210,215,229,239,238,234,231,227,226,225,225,225,222,219,217,217,217,217,216,215,221,224,221,219,218,216,216,217,217,216,212,211,216,218,215,216,220,221,221,221,222,224,222,222,221,219,218,227,232,235,237,241,245,243,242,250,255,252,248,247,253,266,269,268,266,261,260,259,258,259,259,258,258,256,254,251,250,253,257,260,261,259,256,252,257,263,265,261,263,268,274,278,275,277,284,282,278,278,283,282,279,276,273,278,286,286,287,288,288,287,285,281,286,292,290,289,290,290,292,295,299,300,297,294,291,289,290,291,296,299,298,298,297,293,289,287,284,285,292,294,295,295,294,301,306,303,299,299,299,300,303,306,307,303,298,300,307,314,315,310,305,300,295,301,307,310,308,306,309,311,313,323,330,329,325,328,334,332,332,340,341,336,334,344,346,344,342,339,337,335,337,340,337,344,352,358,364,368,369,371,372,373,374,372,371,372,375,375,371,371,373,369,370,384,397,397,396,395,395,417,413,413,421,426,428,430,429,423,421,420,420,420,425,428,423,418,420,428,431,432,432,432,430,432,435,438,433,425,425,433,443,451,458,463,460,452,447,453,456,457,467,479,486,490,496,499,503,503,501,500,499,500,503,499,498,509,516,519,527,530,530,531,525,518,518,526,535,540,549,549,545,543,546,550,561,573,577,578,580,582,582,576,569,568,569,576,586,587,578,577,578,582,586,583,571,562,559,554,548,545,541,539,544,553,552,551,553,552,554,558,559,553,551,552,555,559,562,565,570,577,588,610,635,643,644,640,640,642,649,653,658,664,668,674,681,692,699,720,756,776,772,774,779,780,780,783,785,790,796,802,807,814,823,834,844,848,852,856,861,871,887,902,907,908,911,916,926,931,933,937,948,958,969,972,971,975,981,981,981,981,981,982,982,981,982,981,981,981,981,981,981,981,982,982,981,982,981,981,982,982,982,981,982,982,982,981,981,982,981,981,981,982,981,982,982,982,981,981,981,982,981,981,981,982,981,980,981,981,982,982,981,974,968,964,962,960,957,955,953,947,943,939,931,924,921,915,909,906,904,904,904,905,906,907,902,892,883,875,871,867,862,856,849,845,841,838,833,827,820,813,809,805,800,795,791,790,788,784,777,771,765,759,756,753,750,744,739,733,732,735,737,732,724,714,706,699,694,686,679,675,677,676,671,673,679,676,663,651,640,631,624,620,618,613,608,607,607,602,598,591,579,570,564,557,551,545,539,534,528,522,516,514,516,513,504,497,491,486,484,482,475,467,459,455,451,447,442,435,428,423,418,412,406,401,397,393,388,382,375,368,361,355,350,346,342,339,336,334,330,325,320,316,312,307,306,310,317,314,314,309,303,298,299,307,310,305,316,340,340,355,366,367,369,372,381,376,378,375,381,382,384,377,374,368,364,363,363,357,351,349,348,357,363,362,377,390,405,406,404,411,415,432,433,443,448,447,449,472,477,491,502,530,546,557,565,562,600,604,593,585,594,591,583,575,585,586,578,571,561,566,595,615,613,616,609,602,602,595,598,622,624,616,610,607,602,606,605,599,607,645,658,653,649,649,642,633,630,645,661,660,655,646,660,666,667,704,737,725,710,703,704,693,682,680,679,685,689,685,680,678,678,676,674,673,668,659,651,667,680,698,726,735,722,709,697,684,682,679,673,666,668,666,655,651,662,666,671,685,687,682,680,683,683,685,686,687,688,689,690,689,688,688,685,677,672,665,661,668,671,674,665,668,689,683,681,698,697,693,690,686,684,682,684,684,680,674,671,676,678,680,683,674,664,659,668,678,686,688,686,700,706,700,704,705,706,706,706,708,710,709,709,709,708,706,703,705,712,722,727,721,719,720,708,700,703,707,703,698,695,691,692,690,685,683,687,690,687,681,682,683,680,686,693,693,693,690,688,687,684,682,681,684,692,689,692,697,699,693,686,680,674,675,679,90,89,90,89,89,88,88,87,86,85,85,85,88,90,89,90,92,92,91,91,90,93,92,93,99,102,101,99
14,14,14,14,13,13,13,13,14,13,13,13,13,13,14,13,13,13,13,13,13,13,13,13,13,13,14,14,15,14,13,14,13,13,13,13,13,14,14,14,14,14,14,14,13,14,13,14,14,13,13,13,13,14,13,13,13,14,13,13,13,13,13,13,13,13,13,13,13,13,13,13,13,13,13,13,13,12,13,13,13,13,13,12,12,13,13,13,13,13,14,14,14,13,13,14,14,14,14,14,15,14,14,15,16,15,15,15,15,15,15,15,15,14,15,14,15,14,14,14,14,14,14,14,14,14,14,14,14,14,14,14,14,15,14,13,14,13,14,13,14,14,14,14,13,14,14,14,15,14,14,14,14,13,14,14,13,14,14,14,14,14,14,14,14,14,14,14,13,15,14,14,14,14,15,15,14,15,14,14,14,14,14,14,14,14,14,14,14,14,14,14,15,14,14,14,14,13,14,14,13,13,13,14,14,14,14,14,14,14,14,14,14,14,14,13,13,14,13,13,13,14,14,14,14,14,14,14,14,13,14,13,13,15,15,15,15,14,15,14,14,14,14,15,15,15,14,14,15,15,16,16,15,15,15,15,15,15,15,16,15,15,15,15,15,15,15,15,15,16,16,16,17,16,15,15,15,15,16,16,16,20,25,29,32,31,32,32,32,38,51,66,78,82,92,102,111,114,116,117,115,113,112,118,147,190,245,295,321,325,325,330,340,346,346,365,394,424,454,484,505,516,511,531,541,542,560,580,591,584,590,584,602,640,697,732,727,724,733,729,726,732,750,765,789,801,784,780,797,804,791,787,805,820,806,791,779,771,790,823,875,914,964,972,976,982,982,982,982,982,983,983,983,982,983,983,983,983,982,982,982,982,982,982,983,983,983,982,982,982,982,982,983,983,982,983,982,982,982,971,951,938,926,915,903,890,875,859,844,830,820,806,791,777,764,753,742,729,716,701,687,672,660,649,637,626,616,614,609,605,601,595,589,578,569,567,566,558,554,561,555,558,563,563,555,553,556,555,552,543,535,527,517,509,506,502,499,496,489,481,477,474,466,458,450,444,438,428,419,414,411,405,399,391,385,378,372,366,360,353,347,340,333,328,323,318,313,308,303,297,292,287,281,276,270,264,259,254,249,246,243,240,238,235,231,226,223,219,215,211,206,203,200,197,195,192,189,186,184,182,179,176,174,172,169,167,164,161,158,156,153,152,150,148,147,145,143,141,139,138,136,135,133,132,129,127,125,125,123,121,118,116,115,117,117,116,113,111,111,111,110,108,107,106,105,105,103,102,101,99,97,96,96,95,94,93,92,91,91,91,90,88,87,86,86,85,85,83,82,81,80,79,79,79,78,78,77,76,75,75,74,73,72,71,71,70,69,69,68,68,67,66,65,64,63,62,62,63,63,63,63,62,62,61,60,59,59,59,58,57,58,57,57,56,56,56,55,54,54,53,53,51,50,50,49,50,50,50,50,52,50,50,50,49,49,49,48,48,48,48,47,46,46,45,44,44,43,43,43,43,43,42,41,42,43,43,44,44,43,43,43,43,43,43,42,42,42,42,41,40,39,39,39,38,38,38,38,37,37,36,37,37,37,37,37,37,37,37,36,36,36,36,36,35,35,35,34,34,33,33,32,32,32,32,31,31,30,30,30,29,30,30,29,29,29,29,28,28,28,28,28,27,27,26,26,26,26,25,25,25,24,25,24,24,25,24,24,23,23,23,23,23,23,23,23,22,23,24,24,23,23,23,23,22,25,23,23,23,23,24,24,23,23,23,23,22,22,22,22,21,23,23,23,22,23,22,22,22,21,21,21,21,21,21,20,21,20,20,21,21,21,21,23,25,26,27,28,30,31,30,30,30,29,29,28,29,29,28,28,27,28,27,27,27,28,28,29,31,31,30,31,30,30,31,31,32,31,31,31,30,30,30,29,29,28,29,29,28,27,27,27,27,26,27,27,26,26,25,25,25,26,27,26,28,29,29,29,28,28,28,27,27,26,26,26,26,26,26,25,25,24,25,25,24,23,24,24,25,27,28,31,34,34,34,34,33,34,33,33,33,32,31,31,31,30,30,30,29,28,29,29,30,29,29,28,28,28,27,27,27,27,28,27,28,27,26,27,27,27,26,26,25,25,25,25,25,26,25,25,24,24,24,24,24,23,23,23,23,23,22,22,23,22,22,22,22,22,22,22,21,21,17,17,17,17,17,17,17,17,16,17,17,17,17,17,17,17,17,16,17,17,17,17,16,16,16,16,16,16,16,17
98,97,97,96,95,95,94,93,93,92,91,91,89,89,88,88,87,86,85,86,86,85,85,84,83,85,85,84,83,84,84,83,83,82,82,81,81,80,80,79,79,79,79,77,78,79,79,79,79,80,80,80,80,80,80,80,82,82,81,81,80,79,79,78,78,78,77,76,76,75,74,74,74,73,73,72,72,71,72,71,72,72,71,71,71,70,69,70,69,69,69,69,68,68,69,70,71,72,71,70,70,70,70,70,73,80,86,86,86,86,85,84,84,82,82,83,87,89,88,88,88,88,87,87,88,87,87,86,85,85,84,85,88,89,90,94,98,100,100,99,98,98,100,101,100,99,98,97,97,96,95,97,100,100,100,99,98,97,97,97,102,105,104,107,111,112,112,111,112,112,111,111,110,110,110,110,110,108,108,106,106,104,103,103,102,101,103,108,108,107,109,111,110,112,111,111,110,110,109,108,108,107,107,108,109,109,108,107,106,106,104,103,102,102,101,100,99,100,100,100,99,98,97,98,99,98,98,97,96,98,99,98,101,102,101,103,103,104,102,102,101,101,101,100,99,98,98,99,98,99,98,102,106,105,105,108,109,109,110,110,110,109,108,109,109,108,107,106,107,106,105,104,103,104,103,105,112,113,115,119,122,120,120,129,145,149,152,151,150,151,152,155,154,156,161,160,160,160,169,171,168,175,185,182,184,188,193,202,210,217,217,218,223,222,224,233,243,256,263,269,266,263,258,256,254,252,248,245,247,250,254,259,277,297,305,310,312,314,310,308,307,308,313,331,361,373,378,380,373,369,367,364,360,368,387,384,384,382,378,382,380,383,383,391,387,380,376,369,363,357,351,346,344,347,365,399,431,443,448,449,442,436,431,427,428,428,428,428,430,440,440,437,439,443,445,447,449,451,455,462,462,465,467,472,472,470,471,474,479,490,498,499,490,481,480,485,498,513,531,547,541,539,530,521,516,521,519,517,524,528,522,515,532,586,623,628,625,625,620,610,612,620,610,603,634,641,637,649,666,678,682,670,670,666,682,695,693,710,720,714,733,739,755,785,805,799,790,788,778,786,774,776,785,778,781,784,775,764,760,749,750,739,733,730,723,714,713,709,713,713,713,719,722,716,706,701,717,727,774,782,778,769,781,777,765,754,746,739,732,726,716,711,698,690,690,690,692,695,690,677,670,668,668,669,665,653,642,637,644,661,668,661,653,644,638,631,625,621,640,645,644,646,649,649,653,655,648,645,645,639,631,627,631,633,629,623,619,617,616,618,619,617,611,605,600,603,600,595,584,580,582,587,586,586,585,590,594,592,590,592,592,592,588,583,578,576,574,575,577,572,569,572,575,570,567,565,562,559,558,556,555,554,554,553,551,548,546,551,556,555,551,545,541,543,544,548,551,548,539,534,532,529,526,525,523,519,515,514,517,518,516,512,506,499,496,501,504,510,516,515,513,519,535,544,537,529,520,513,503,495,488,484,483,484,483,481,480,478,478,476,474,473,471,471,471,469,464,459,454,446,439,433,435,439,448,449,448,448,445,443,441,439,438,438,437,437,440,441,435,428,422,423,423,420,418,417,415,409,405,409,407,402,401,399,399,401,404,400,401,406,407,400,394,387,381,384,386,391,395,394,387,381,377,376,370,363,363,366,366,364,362,360,357,355,354,357,356,353,351,351,349,348,349,345,340,336,337,339,337,334,330,331,334,339,342,346,348,348,344,338,333,329,332,340,343,341,338,332,331,327,326,334,337,332,327,324,324,324,323,322,321,321,320,319,317,318,319,317,314,314,313,312,310,307,301,297,293,295,296,296,295,292,290,289,289,288,288,288,287,288,288,290,291,286,284,284,281,280,282,283,280,276,272,269,266,264,271,281,279,275,272,272,272,273,272,267,264,260,259,256,254,250,247,247,244,247,250,252,254,254,255,252,250,248,246,242,241,242,241,241,241,238,234,231,227,224,221,223,222,220,224,224,225,227,225,222,218,216,215,215,212,209,207,212,214,213,210,207,206,206,205,201,200,201,203,202,201,200,197,194,192,196,195,193,194,196,196,193,191,189,188,185,183,184,187,186,186,188,186,183,182,180,183,182,179,178,182,182,180,177,174,172,171,175,176,176,174,171,171,171,171,173,172,178,182,181,180,180,182,182,183,188,188,188,187,188,188,187,185,184,184,183,181,180,178,177,176,175,173,171,168,156,154,152,150,148,146,148,149,148,146,144,143,143,143,142,140,138,136,137,136,135,134,137,137,137,136,136,138,138,136
16,16,17,16,16,16,16,17,16,16,16,16,15,15,15,16,15,16,15,16,16,16,15,15,16,15,15,14,15,14,15,15,15,16,16,15,16,15,15,15,15,15,15,15,16,15,15,16,17,16,16,16,16,16,16,16,16,16,16,16,16,16,17,16,16,16,16,16,16,16,16,16,16,16,16,18,16,16,16,16,16,16,15,16,16,15,16,15,15,15,15,15,15,15,15,15,15,15,15,15,15,15,16,16,16,16,15,16,15,16,16,17,17,16,17,16,16,17,16,16,16,16,16,16,16,16,17,17,16,16,16,15,16,16,16,15,16,16,15,16,16,16,16,15,15,15,15,16,15,15,15,15,15,16,15,15,16,16,16,16,15,16,16,15,15,15,16,16,16,16,16,16,17,16,16,16,16,16,15,15,15,16,15,15,15,16,15,16,15,17,18,17,18,17,17,19,22,26,30,32,30,32,34,34,34,33,32,32,32,31,32,32,31,30,31,29,30,29,29,29,30,29,29,29,28,29,29,30,33,36,38,41,42,43,43,43,43,43,42,44,46,51,66,88,109,127,132,132,136,142,145,142,144,146,145,143,146,156,174,193,209,216,213,213,211,206,202,201,203,201,200,201,198,196,198,205,210,209,209,204,210,244,284,306,306,318,337,351,355,351,345,343,342,341,342,348,354,353,347,342,340,345,347,345,360,370,366,372,380,377,376,377,371,371,370,366,365,357,353,365,380,392,391,413,424,426,430,430,425,436,453,453,455,470,472,464,462,456,453,450,456,482,514,527,524,521,527,539,539,529,517,508,504,494,485,478,471,467,461,452,444,435,434,445,452,447,439,431,428,436,434,434,427,421,415,409,406,397,391,404,425,429,423,424,418,416,411,414,414,408,407,403,409,418,421,418,433,476,507,511,532,531,542,541,547,564,574,580,585,584,579,571,562,553,541,533,529,527,524,519,514,507,500,493,486,480,472,464,454,447,441,436,430,424,419,413,407,400,397,393,385,382,385,387,386,383,379,376,372,365,363,357,354,357,354,351,348,344,342,338,332,327,325,321,318,312,305,301,298,293,290,286,283,281,277,272,268,266,264,262,260,258,256,253,251,248,244,239,238,236,233,235,235,234,231,229,226,223,220,218,216,213,211,207,205,203,199,197,195,192,190,188,185,182,177,174,172,173,173,173,173,171,168,165,162,158,155,153,150,146,144,142,141,139,137,136,136,137,136,134,132,131,129,127,125,124,122,121,118,116,113,112,109,108,107,106,104,105,106,106,104,102,101,99,97,96,96,95,95,94,93,93,93,92,89,88,86,85,84,84,84,84,84,82,81,81,81,82,81,79,78,77,76,76,74,73,72,71,69,68,68,68,68,67,65,65,64,63,62,62,61,60,60,59,58,57,57,57,56,55,54,53,53,53,52,51,50,50,50,50,50,50,51,50,50,49,49,49,48,48,46,47,47,46,46,46,46,45,44,45,44,43,42,43,42,43,44,45,44,44,43,42,42,41,41,40,39,39,38,38,37,37,36,36,35,35,34,35,34,34,33,33,32,32,32,31,31,30,31,31,30,30,30,31,30,30,31,32,32,32,32,32,31,31,31,30,30,30,29,29,29,29,29,29,28,28,28,27,27,27,27,27,27,26,26,26,25,26,25,25,25,25,24,24,24,24,25,26,26,27,27,27,26,26,26,26,25,25,25,25,24,24,25,25,24,23,23,23,24,25,25,25,25,24,24,24,23,24,24,24,23,23,23,23,22,22,22,22,21,22,22,22,22,22,21,21,21,21,21,20,20,20,20,20,20,21,21,21,21,21,21,20,20,20,21,21,22,21,22,21,21,20,21,21,20,21,20,19,21,21,20,21,20,20,20,20,20,20,20,20,19,19,20,18,19,18,18,18,18,18,19,18,18,18,17,17,18,17,17,17,17,17,17,17,18,19,20,21,22,23,23,22,22,22,22,21,22,21,21,21,21,21,21,20,20,20,20,20,20,20,19,19,19,19,20,21,20,20,20,20,20,19,19,19,19,19,19,19,19,19,19,19,19,18,18,18,18,18,18,18,18,18,18,18,18,18,18,17,17,18,19,19,20,20,20,20,19,18,20,20,20,20,20,19,20,19,20,19,19,19,19,19,19,18,18,19,18,18,18,18,18,18,18,18,17,18,18,17,17,17,17,17,17,16,17,16,18,18,18,20,21,21,21,22,21,21,21,21,20,20,21,21,21,20,20,21,20,20,20,20,21,20,20,20,20,19,20,20,20,20,20
135,134,133,133,132,130,129,126,125,124,123,121,120,118,117,117,118,116,118,118,118,119,119,118,117,116,115,118,116,120,125,126,124,123,121,120,120,119,120,122,122,120,119,118,117,119,121,121,120,117,117,116,114,114,112,111,110,108,107,106,106,108,115,114,114,118,117,117,117,116,114,114,117,116,120,121,120,118,118,116,115,114,112,111,110,108,108,107,108,107,106,106,106,104,103,102,102,102,104,106,111,112,113,112,113,120,121,131,130,131,133,132,131,130,128,128,132,133,135,133,133,133,133,132,131,133,134,132,133,133,132,130,129,133,132,133,131,130,130,128,131,132,133,132,131,129,128,126,126,126,129,129,128,131,131,130,132,135,134,133,132,135,137,136,134,133,135,144,147,151,158,156,153,151,150,155,165,167,173,171,174,178,189,196,195,197,195,197,198,194,192,190,187,187,185,182,180,178,180,184,184,181,177,176,174,172,171,177,178,178,179,177,176,182,188,185,183,183,186,187,196,200,198,204,205,202,202,201,199,198,195,192,190,189,196,199,205,218,217,218,220,222,225,224,221,218,216,214,213,211,211,220,220,222,225,229,230,229,225,222,230,234,231,233,237,255,256,254,258,264,267,264,268,275,277,276,274,277,289,301,305,301,303,312,318,321,325,320,318,318,320,323,328,329,326,333,344,348,361,366,363,358,352,346,340,336,337,343,352,354,358,355,349,344,340,334,328,322,318,315,327,343,352,348,346,342,337,339,339,335,331,327,324,332,339,337,333,328,327,331,342,344,337,333,335,338,339,342,350,359,365,376,378,384,388,389,393,403,414,440,477,491,495,509,516,524,534,552,567,574,574,573,579,595,611,626,642,657,682,720,743,741,737,748,762,771,782,805,819,817,821,825,833,843,858,871,874,879,887,893,899,903,911,920,930,934,938,946,955,965,969,971,975,981,981,981,982,982,981,981,982,981,982,982,981,981,982,982,981,981,981,982,981,982,981,981,981,982,981,981,982,980,982,981,982,981,982,982,981,982,982,981,981,982,981,982,981,982,981,982,982,981,981,981,981,968,953,942,935,944,953,946,928,915,898,891,892,891,875,859,852,849,843,833,824,819,827,837,833,839,840,825,815,801,785,772,761,750,737,729,717,705,691,685,683,672,660,646,638,630,623,615,614,629,634,623,615,608,608,604,601,595,588,583,587,587,604,617,612,601,592,596,603,598,590,585,575,579,578,580,583,585,593,598,596,585,575,566,571,577,572,571,572,592,613,618,608,599,596,592,589,581,582,585,584,576,574,579,591,594,593,588,588,597,608,603,596,598,608,607,601,611,615,612,611,607,609,602,598,593,591,597,603,609,616,628,624,616,620,623,630,626,622,616,610,613,606,613,632,639,631,628,624,621,625,620,614,606,610,629,627,616,618,635,649,649,655,666,665,667,683,676,667,672,672,667,655,649,653,650,641,646,672,677,680,679,670,668,666,671,673,697,718,722,721,719,715,712,707,704,701,699,695,685,683,688,690,688,688,695,696,705,707,705,700,704,698,692,686,706,709,711,708,704,706,700,696,701,702,702,703,704,698,698,706,705,706,705,702,700,691,693,702,702,692,679,667,676,696,702,695,708,716,712,707,704,704,703,702,702,700,695,694,696,702,703,702,702,701,706,705,697,689,682,671,666,671,677,688,686,683,686,687,687,687,686,682,678,670,670,672,672,673,675,671,668,669,669,667,665,663,663,662,656,646,642,643,649,650,656,662,667,664,658,652,650,647,642,641,642,640,639,638,636,635,632,629,621,620,626,624,618,616,623,625,624,625,626,629,632,622,611,611,616,624,633,630,627,623,622,619,616,613,606,601,599,602,600,594,587,584,584,580,572,569,576,577,583,586,584,579,574,567,560,558,561,559,560,559,559,559,559,559,558,557,556,555,554,551,550,555,559,560,555,546,540,539,538,536,531,529,527,519,512,513,516,526,531,530,531,525,520,517,515,513,509,508,507,505,507,511,510,506,502,501,497,491,496,498,493,486,482,481,478,478,473,466,459,467,474,474,473,472,470,469,468,468,466,463,459,455,454,456,453,447,440,447,449,448,447,446,446,443,440,440,440,439,438,434,429,427,426,426,422,421,420,415,411,411,418,425,426,422,419,415,409,404,406,414,418,413,411,413,414,408,401,396,393,392,395,395,392,389,384,379,383,386,386,384,99,98,97,99,101,103,103,102,102,103,103,102,101,99,98,98,99,102,104,103,102,101,99,99,98,97,96,95,94,94,92,92
19,20,19,20,19,20,19,19,19,19,19,19,18,18,19,19,19,19,21,22,22,23,22,23,21,22,22,21,22,22,22,21,21,21,21,20,21,21,20,20,20,20,21,19,19,20,20,20,21,20,19,19,19,19,20,20,20,19,19,19,20,20,20,20,20,20,20,20,20,19,19,20,20,20,19,20,20,20,19,18,20,20,20,19,19,20,20,20,19,20,19,19,19,19,19,20,20,19,20,19,19,19,20,19,19,19,19,19,18,18,18,19,19,19,19,19,20,20,19,20,19,19,19,19,19,19,18,18,18,17,17,19,20,20,20,20,20,20,20,20,19,19,19,20,19,19,19,19,19,19,19,20,20,19,20,20,20,20,19,20,19,19,19,19,18,19,19,19,19,18,18,18,18,18,18,18,18,18,18,18,18,18,18,18,19,19,18,19,18,19,18,19,19,18,18,18,19,21,21,21,22,22,22,23,23,23,24,24,24,23,23,23,23,22,22,22,22,22,21,21,21,21,22,22,22,23,22,22,21,21,22,22,25,30,34,36,37,37,36,37,37,37,37,38,41,45,49,51,55,58,63,65,65,65,67,70,70,73,80,83,84,85,85,86,84,83,81,81,80,79,77,76,75,74,74,78,86,95,105,115,123,129,131,130,128,124,122,120,118,123,134,151,171,176,173,175,173,176,187,210,229,243,251,256,253,252,275,304,316,314,315,338,351,351,345,338,342,380,430,483,523,532,544,542,537,531,525,523,521,524,527,526,516,513,512,509,504,503,507,506,510,510,511,522,534,531,539,547,544,547,553,560,585,619,624,633,644,646,636,624,615,609,598,586,585,600,610,601,607,617,620,616,608,628,656,652,648,668,677,674,669,674,668,672,679,670,655,645,636,625,621,614,604,597,596,588,590,596,593,582,572,570,565,554,558,589,643,668,669,692,711,723,722,709,695,683,674,664,658,646,636,630,631,626,625,650,670,668,681,689,689,685,675,664,655,647,639,626,627,668,715,724,741,762,771,777,778,774,765,756,748,739,730,720,709,696,681,669,660,649,639,630,620,609,597,584,572,560,549,541,534,527,521,515,508,501,494,487,479,472,466,458,451,444,436,429,422,415,409,403,397,392,387,382,377,372,370,367,364,357,356,355,350,353,354,353,350,346,342,337,333,329,322,316,311,312,312,308,305,301,297,292,289,286,282,279,275,269,263,259,256,254,250,250,250,249,245,240,238,238,237,237,233,228,224,219,215,213,210,207,206,203,200,198,195,193,190,186,183,180,180,179,177,173,170,167,168,168,164,161,158,157,159,162,161,162,161,160,157,153,151,149,147,145,142,142,141,140,137,136,133,132,130,129,127,125,124,123,121,119,117,115,114,114,114,113,112,111,109,108,107,106,105,103,101,100,98,97,97,97,95,95,94,92,90,89,88,87,85,85,85,85,84,83,82,81,80,78,77,77,76,75,74,73,72,70,70,71,70,69,69,68,67,66,64,64,65,63,63,62,61,63,62,61,60,59,60,60,61,60,60,60,60,59,59,59,58,59,58,57,56,55,55,54,54,53,52,52,52,51,51,50,49,48,48,48,47,48,48,48,48,48,47,46,46,46,44,44,43,43,43,43,42,42,42,41,41,42,42,44,43,42,41,41,42,41,41,39,40,40,40,41,41,40,40,39,38,39,41,41,41,41,41,41,41,41,40,41,41,41,41,40,39,39,39,38,38,37,37,37,37,36,36,36,36,35,36,34,35,34,33,33,34,34,34,34,34,34,33,33,33,32,33,34,34,34,34,34,35,35,36,35,36,36,36,36,35,34,34,33,35,36,36,36,36,35,35,34,35,34,34,33,33,33,32,32,32,32,32,32,31,30,31,29,29,30,31,31,31,31,29,29,29,28,28,29,29,30,30,31,31,30,29,30,29,29,29,29,29,29,31,31,31,31,31,30,30,31,30,30,30,29,29,29,28,27,28,29,29,29,29,29,29,29,28,28,28,28,29,28,28,28,28,28,27,27,27,26,26,26,26,27,28,29,29,30,30,30,31,30,30,30,29,28,28,28,28,28,27,27,28,28,28,27,27,27,27,26,25,26,25,25,25,26,25,26,25,25,24,24,24,23,24,23,23,23,23,22,22,22,22,23,22,22,22,21,22,21,22,22,22,21,21,21,21,21,20,21,20,20,20,19,19,20,20,20,22,14,15,15,16,16,16,16,16,16,17,17,16,17,18,17,18,17,17,17,18,17,17,16,17,16,16,16,17,17,17,16,16,16,16
91,90,90,89,88,87,87,86,86,87,87,88,90,89,89,93,96,96,96,95,97,95,95,96,97,97,97,95,94,93,93,93,91,90,89,89,88,87,87,87,87,89,91,97,98,97,98,96,95,95,93,93,92,91,90,90,89,89,89,90,89,89,88,87,86,85,85,85,84,84,83,82,82,82,81,82,83,83,82,82,82,85,85,85,91,96,96,99,103,102,104,105,105,104,103,103,101,101,99,99,99,98,97,96,95,94,94,93,94,94,93,96,102,106,106,105,103,103,102,101,99,99,99,98,97,96,95,95,95,97,99,98,100,103,104,104,104,104,103,102,101,100,99,98,97,96,96,95,93,93,93,93,92,92,92,91,90,90,89,90,91,93,92,93,91,92,91,91,90,89,88,87,86,86,85,85,85,89,91,90,92,94,96,99,100,99,101,103,103,103,102,101,100,99,98,97,96,95,94,93,95,94,95,94,93,93,92,92,94,92,93,96,99,99,102,101,101,100,99,98,97,99,99,100,100,99,100,99,99,97,97,98,99,98,103,106,106,105,104,104,105,108,107,108,110,113,111,110,109,109,109,107,107,106,106,107,116,117,123,128,133,141,140,139,142,141,142,144,149,148,146,147,149,148,145,150,154,159,165,165,164,161,160,167,173,177,176,176,180,184,186,189,193,195,194,193,200,207,217,226,233,240,250,256,256,255,254,257,262,263,260,262,270,274,271,272,283,290,298,299,298,295,293,291,289,291,293,295,291,288,287,284,280,278,277,276,279,281,281,294,325,334,338,340,335,333,330,329,326,325,321,318,320,332,362,374,380,376,368,365,357,357,368,385,398,401,394,394,400,403,398,398,410,438,471,477,482,488,497,510,532,548,542,535,529,526,527,528,530,543,570,597,601,598,602,611,620,631,649,655,647,640,639,644,660,682,707,712,707,710,717,726,725,720,719,719,717,718,720,723,726,735,743,753,765,769,774,784,804,808,800,796,787,783,781,777,777,781,790,791,789,786,783,779,777,776,774,774,773,772,771,770,770,770,769,769,768,767,767,766,764,762,759,758,756,755,754,753,751,750,752,759,763,765,768,770,764,754,747,741,734,726,719,715,715,723,734,741,738,726,714,700,689,687,690,692,700,707,711,717,717,705,691,686,687,677,668,655,644,632,620,620,644,675,698,714,705,696,688,694,687,697,689,675,675,695,710,703,694,685,679,680,669,665,668,671,671,660,655,649,653,645,649,651,640,629,620,609,600,606,615,607,596,587,576,568,564,563,554,548,546,547,564,573,564,556,550,550,543,549,555,552,544,541,558,565,564,556,546,540,549,554,560,560,551,547,548,546,565,578,576,573,578,590,593,586,579,578,567,561,570,567,559,573,575,569,564,565,575,582,588,588,583,583,609,634,629,621,612,608,601,596,594,600,614,607,597,605,605,608,620,620,621,622,621,620,623,626,625,626,624,615,625,657,676,665,654,643,637,637,635,624,616,622,633,637,632,626,635,647,646,648,647,646,635,640,650,648,650,650,648,651,654,654,654,655,660,663,661,660,672,676,672,672,671,669,669,670,670,668,667,671,678,685,687,685,675,664,659,652,644,640,635,644,660,665,668,667,661,671,682,687,687,681,680,679,677,677,679,677,673,671,669,668,668,668,669,669,668,668,669,667,667,663,662,663,656,655,655,651,648,652,654,657,659,654,642,642,647,649,649,647,643,640,642,647,656,652,643,636,636,638,636,639,638,634,629,627,621,618,614,610,613,614,609,604,608,609,606,604,607,607,599,597,609,610,605,607,611,607,604,601,595,588,581,578,575,581,591,594,589,586,584,576,570,571,571,571,570,568,567,566,563,562,562,562,562,562,558,552,557,563,565,561,552,545,542,533,530,533,531,529,529,531,530,525,524,524,523,516,512,510,512,516,522,518,515,520,521,516,511,507,504,502,497,489,490,490,491,492,489,484,482,487,488,490,494,487,478,476,481,484,484,480,476,472,470,467,465,463,461,458,451,448,451,458,461,461,455,448,447,449,446,442,438,434,435,435,434,426,419,420,424,428,433,439,433,432,430,437,444,447,443,438,433,429,425,422,419,417,415,414,413,411,408,407,405,403,402,400,398,399,401,398,391,389,391,392,394,394,390,386,383,379,377,374,372,369,367,366,364,361,358,354,353,355,358,358,359,359,358,357,353,349,345,341,341,81,81,81,80,80,79,79,77,78,78,79,78,77,77,76,76,75,75,74,75,73,72,72,74,73,73,72,72,72,71,71,70,70,71
16,15,16,15,16,16,16,16,16,15,15,15,16,15,15,14,15,15,15,15,15,15,15,15,15,15,14,15,15,15,15,17,17,17,17,17,18,17,17,17,16,16,16,16,16,17,18,18,18,17,17,17,17,17,17,17,17,17,16,17,16,16,16,16,16,16,16,16,16,16,15,15,15,15,15,16,16,17,16,16,17,17,17,17,17,17,17,17,17,17,16,16,16,17,16,16,16,16,16,16,15,16,16,16,16,15,16,16,16,16,16,16,16,15,16,16,15,16,16,15,15,15,16,16,16,16,16,15,15,16,16,16,16,16,16,17,18,18,18,18,18,18,18,18,18,18,18,18,18,18,17,17,17,17,17,17,17,16,17,16,16,16,16,16,16,17,17,16,16,16,16,16,16,16,16,16,16,17,17,18,19,19,18,18,18,18,19,19,19,18,18,18,18,18,18,18,18,17,17,17,17,17,17,19,21,25,27,29,30,32,32,32,31,31,31,30,31,34,38,41,42,42,44,46,51,57,57,59,59,61,62,60,59,58,58,57,57,58,61,68,74,74,76,77,76,76,76,78,79,83,90,96,96,95,96,106,124,139,141,148,157,161,165,166,168,173,182,190,188,189,195,210,235,257,269,282,298,326,361,376,384,417,426,418,420,439,471,511,541,554,554,546,538,536,540,542,539,528,519,516,521,530,545,548,600,672,731,738,765,792,787,780,787,786,777,775,761,767,774,762,762,771,779,790,791,786,826,871,882,879,902,914,921,922,911,916,926,927,922,960,983,983,982,982,982,982,983,983,983,982,983,976,966,954,940,928,924,919,908,920,922,910,912,911,901,891,882,868,891,936,970,961,944,925,914,903,914,930,927,934,957,942,922,908,902,909,937,960,949,966,982,982,983,983,983,983,982,982,982,982,983,982,981,982,982,983,976,983,983,983,982,982,982,983,983,983,983,983,982,983,983,982,983,982,983,982,982,981,982,982,983,982,982,982,982,982,983,968,951,930,911,901,901,896,883,878,864,858,901,964,974,981,982,982,982,982,982,982,982,982,975,962,945,928,911,893,878,860,844,832,823,808,792,777,766,758,747,734,721,707,693,681,672,662,652,641,633,625,619,612,603,591,582,571,558,547,536,528,528,525,518,511,503,495,487,478,476,473,466,467,467,461,453,448,446,442,435,429,424,420,412,404,397,390,385,380,375,370,365,359,354,349,344,340,336,332,327,322,317,314,309,303,296,292,293,292,289,284,279,275,271,267,263,260,256,251,247,244,241,237,232,228,224,221,223,221,218,215,213,212,209,207,204,201,198,195,194,192,190,188,185,182,179,177,175,173,172,169,167,164,162,160,159,158,156,154,151,148,146,146,145,144,143,142,141,139,138,136,134,133,132,130,129,128,126,125,124,122,121,120,119,117,116,115,113,112,110,109,108,107,104,104,104,103,102,101,100,100,100,99,98,97,96,95,93,92,90,88,88,86,86,87,86,86,85,85,84,84,84,83,82,82,82,80,78,77,76,77,75,75,73,73,72,72,72,72,71,70,70,69,68,68,68,67,67,66,65,64,63,63,63,63,62,61,61,61,60,60,59,58,57,57,57,58,57,56,55,55,53,52,52,52,52,52,51,51,50,50,49,48,49,49,49,49,49,49,49,48,47,46,46,45,45,45,44,44,45,44,44,44,44,43,43,43,42,42,41,41,40,40,39,39,38,38,38,38,38,38,37,37,36,37,37,38,38,37,39,37,37,36,36,35,35,34,34,33,34,33,34,34,34,34,34,33,33,33,32,32,31,31,31,31,30,30,31,30,29,29,29,28,27,28,27,27,27,27,27,27,27,27,27,26,27,26,26,26,27,27,26,26,25,26,25,26,25,25,25,25,24,25,25,25,25,25,25,25,24,24,24,23,24,23,23,23,22,22,22,22,22,21,21,21,23,22,23,22,22,23,24,26,26,27,26,26,26,26,26,26,25,24,24,25,25,25,25,25,24,24,23,24,24,23,24,24,23,23,22,23,23,24,23,23,24,24,24,24,24,25,24,24,24,23,23,23,23,23,23,23,23,23,22,23,22,24,26,27,28,27,28,28,28,29,27,29,29,30,31,31,33,33,33,34,33,32,31,31,30,30,31,30,29,30,30,31,31,30,30,31,30,29,29,30,29,29,29,28,28,28,28,27,27,26,27,27,26,16,16,15,16,16,15,16,16,16,16,17,16,16,16,16,16,15,15,16,15,15,15,15,14,15,14,15,14,14,15,14,14,15,15,15,14
72,71,73,76,78,77,76,76,76,77,75,75,75,74,74,73,73,72,72,72,71,72,71,70,70,69,70,70,69,69,68,69,71,74,75,77,77,76,76,76,75,75,77,81,83,82,81,81,80,80,82,84,84,85,87,93,100,101,100,99,97,97,96,96,95,95,97,98,97,96,95,94,94,95,95,95,94,93,92,91,90,90,89,88,87,87,86,85,84,84,83,83,85,86,87,86,86,87,86,85,84,85,87,90,88,90,93,93,92,92,91,91,93,98,99,100,99,101,111,114,118,117,117,116,117,115,114,113,111,111,110,109,108,107,106,105,104,103,102,101,100,99,98,97,97,97,96,95,94,94,94,96,97,99,104,107,106,109,111,110,109,108,107,107,105,108,108,108,107,113,118,119,121,120,120,119,118,117,119,119,117,116,117,120,118,118,118,121,121,122,123,122,121,123,122,121,120,119,119,117,116,115,115,116,116,115,116,119,117,116,115,114,118,126,129,127,133,134,135,134,132,133,134,133,132,133,135,141,145,145,147,148,150,153,171,190,193,192,198,198,200,199,198,196,194,191,194,197,197,194,192,193,200,212,216,215,214,221,232,235,237,238,237,233,235,235,233,231,240,250,257,264,274,283,292,300,300,300,304,306,324,346,358,361,364,367,366,372,378,383,385,393,400,398,390,384,389,394,410,419,416,410,405,411,427,435,436,432,430,439,455,454,446,441,441,435,435,430,423,422,422,415,408,408,403,397,396,401,403,402,398,392,386,383,384,395,395,400,419,429,428,427,426,425,435,456,468,475,491,514,534,542,534,532,536,546,555,558,564,573,586,598,605,621,638,646,674,693,695,700,701,705,712,720,728,735,746,759,777,804,842,844,837,833,835,841,852,866,882,890,886,886,888,891,892,894,896,906,925,940,935,932,932,934,939,944,957,974,977,975,980,975,970,964,961,962,966,972,981,981,981,977,973,969,967,965,962,960,958,956,955,953,952,948,948,948,943,942,945,946,938,933,930,932,943,941,925,914,911,906,898,885,874,866,859,852,844,836,830,821,814,807,800,793,788,783,777,769,762,754,747,739,728,717,710,705,699,692,681,669,657,650,638,630,619,610,604,597,594,594,585,577,568,559,549,547,540,531,528,521,511,508,512,506,498,492,483,475,467,463,469,474,477,478,474,465,460,457,457,456,464,477,489,493,487,480,474,471,467,475,487,495,500,500,500,494,488,485,482,488,505,515,513,509,505,502,507,518,520,513,504,501,513,517,523,523,528,531,531,531,534,537,541,548,560,563,561,558,558,559,561,554,546,538,535,530,533,549,557,560,565,568,570,570,563,567,576,584,583,577,569,566,567,565,562,563,574,586,594,598,601,599,591,585,589,581,570,563,584,601,605,606,607,603,596,588,580,577,576,576,573,576,584,586,587,586,588,591,595,595,584,580,588,598,603,603,602,600,598,598,598,596,599,605,615,624,628,620,608,598,594,590,588,588,588,586,579,575,569,569,570,573,570,567,571,579,584,581,580,582,581,577,573,569,570,571,570,566,560,561,562,561,560,560,566,564,561,561,565,565,563,565,564,559,556,555,553,547,542,547,552,552,549,546,543,542,541,539,538,536,534,532,532,530,529,528,526,523,520,519,520,520,520,519,517,516,515,514,514,511,508,508,510,510,511,515,514,509,501,492,487,489,492,491,488,485,482,478,477,475,471,466,464,468,468,468,471,472,476,477,481,484,475,467,463,459,456,454,451,449,447,445,443,441,439,434,426,422,428,431,429,429,430,429,427,424,421,422,423,423,425,426,425,423,420,417,414,410,408,406,404,404,404,404,404,399,394,394,394,393,388,386,386,382,381,383,380,375,370,368,367,369,372,371,367,362,357,353,349,344,342,342,343,342,340,339,338,338,337,334,334,335,338,338,336,335,331,328,326,323,321,319,318,318,317,316,313,310,310,311,313,315,315,314,313,309,306,303,302,304,308,312,308,303,299,295,291,290,288,284,279,282,285,288,291,292,291,288,285,283,281,281,279,278,276,272,271,270,272,270,266,262,265,269,268,263,258,255,256,258,258,257,256,254,253,251,248,244,242,242,245,247,249,257,259,269,271,266,269,273,275,278,276,276,280,276,276,275,271,267,264,260,255,258,258,255,257,265,266,261,257,254,254,258,260,256,252,253,251,249,247,245,241,239,240,150,148,146,147,148,146,145,147,150,148,147,152,158,158,156,154,156,156,154,152,150,148,146,144,144,149,158,162,165,168,171,170,175,175,173,171
14,14,14,14,14,14,15,16,16,15,15,16,16,15,15,15,15,15,15,15,15,15,14,14,14,15,14,15,15,15,14,15,15,15,16,16,17,16,16,17,17,17,16,16,16,16,16,16,16,17,15,15,15,16,15,16,17,18,20,19,19,19,19,18,19,18,19,18,18,18,18,17,17,17,17,20,23,25,26,28,28,28,28,27,27,27,27,26,26,26,25,25,25,25,24,24,23,24,24,23,22,23,23,23,24,24,24,26,26,26,27,27,28,27,27,26,26,26,25,25,24,24,24,24,25,23,23,23,22,23,21,22,23,21,22,21,21,20,20,21,20,19,20,19,19,20,19,19,19,19,18,18,18,19,18,18,18,17,19,20,20,20,21,21,24,30,31,33,35,35,35,34,33,34,34,38,44,49,50,51,51,52,52,52,53,55,56,55,55,56,59,60,66,78,93,105,116,133,152,163,163,162,173,188,205,216,216,219,218,226,244,264,277,287,300,319,327,328,322,319,331,355,379,396,410,424,437,439,435,453,472,485,481,490,488,488,538,628,712,762,760,766,775,793,811,824,825,859,894,908,905,897,884,869,855,856,845,864,895,902,895,881,885,897,908,899,909,913,916,907,895,911,952,966,970,960,960,950,941,943,939,934,923,914,905,898,913,908,896,899,884,879,876,862,847,846,849,850,837,824,823,838,853,854,878,880,863,853,842,849,860,855,848,863,877,884,884,866,854,835,820,803,788,781,767,756,754,770,840,890,890,902,889,876,887,877,871,860,855,853,848,848,852,846,834,837,848,880,914,914,939,967,980,982,981,970,959,982,983,983,982,982,982,982,982,982,982,983,983,982,982,983,982,965,948,934,921,937,962,973,953,933,916,908,910,920,925,921,912,898,883,866,851,840,826,816,811,804,793,777,761,746,735,728,717,705,694,683,672,661,651,640,629,615,603,592,587,580,572,567,560,551,540,531,524,516,509,503,500,493,485,483,479,471,471,466,461,455,445,436,430,430,424,419,417,413,409,406,405,402,402,401,398,394,392,386,379,371,364,358,355,352,349,346,342,337,332,326,320,315,309,305,302,299,295,290,286,283,279,275,271,266,262,261,257,252,248,244,241,236,232,228,224,223,218,214,210,206,203,199,201,204,203,201,198,196,194,192,190,188,185,183,180,177,175,173,172,169,167,166,163,159,156,153,151,152,151,149,148,147,145,144,141,139,136,134,134,132,133,131,130,129,128,126,124,123,123,121,119,119,117,116,114,111,109,109,108,107,106,105,105,104,103,103,101,100,99,98,101,103,103,103,103,102,101,99,97,96,96,95,94,94,93,92,91,89,89,90,90,90,89,89,87,86,85,85,86,86,85,84,82,82,81,80,81,80,79,78,76,75,75,74,73,72,73,73,72,72,71,71,70,69,68,68,67,66,65,65,64,65,64,63,62,62,61,60,60,61,59,59,58,57,56,56,56,57,57,55,55,54,53,54,54,54,54,53,54,54,53,52,52,51,51,50,50,49,49,48,47,47,46,46,46,44,44,45,45,45,45,44,44,43,43,43,44,44,44,43,42,42,42,43,43,43,43,42,42,42,41,40,40,40,40,40,39,39,38,38,37,38,38,38,37,37,37,36,36,36,35,35,35,34,34,34,34,33,33,32,32,31,31,31,32,32,31,31,32,31,31,31,31,31,31,31,31,31,31,30,30,30,30,29,29,29,28,28,27,27,27,28,27,27,26,27,26,27,28,28,29,29,29,29,29,29,28,27,27,27,27,26,26,26,26,25,25,25,25,24,23,24,24,24,23,23,23,23,22,22,22,22,22,21,21,21,21,21,20,20,20,20,20,20,20,20,19,20,19,19,19,19,18,19,19,19,19,19,19,19,19,19,19,19,18,19,18,18,18,18,18,19,19,19,19,20,19,19,18,18,18,18,18,18,18,18,18,18,18,17,17,18,17,17,18,17,18,18,17,18,17,17,17,17,17,16,17,17,17,16,17,16,16,16,16,16,16,16,16,16,16,16,16,15,16,16,15,16,16,16,16,16,16,15,15,15,16,17,17,16,17,17,17,16,16,17,17,16,16,16,16,16,16,16,16,17,16,16,15,16,15,15,15,16,15,16,16,16,15,15,15,15,16,15,15,15,16,16,16,17,16,16,16,16,16,16,16,16,16,16,15,16,16,16,15,13,14,13,14,14,14,13,13,13,14,14,14,13,13,14,13,13,13,13,14,14,14,14,15,14,14,15,14,15,14,14,14,14,14,14,15,14,14
168,165,168,170,169,168,166,163,161,159,164,168,168,166,166,168,166,164,161,159,157,155,154,152,152,154,158,166,174,182,179,180,178,176,174,176,174,172,170,168,165,164,161,159,156,156,159,160,159,165,164,168,184,189,194,197,201,200,198,196,194,192,189,187,183,180,179,177,175,172,170,168,167,164,162,162,160,159,159,163,167,165,165,164,163,163,162,160,162,169,170,171,174,172,173,172,174,175,173,175,174,176,175,173,171,171,175,180,178,182,183,181,178,176,173,171,170,169,169,167,167,172,177,177,176,175,173,172,176,179,177,175,172,169,168,168,167,164,162,160,158,157,155,153,159,168,167,167,166,163,161,160,160,159,157,156,167,173,172,169,168,166,164,167,166,164,170,178,176,174,172,172,176,186,187,186,187,184,181,180,179,179,181,179,180,184,185,186,185,187,190,186,186,187,207,226,224,221,221,225,233,231,227,225,231,254,271,270,266,267,264,259,261,267,282,293,296,298,305,317,314,314,326,335,344,348,342,336,332,339,354,363,368,369,380,393,400,394,391,398,413,416,424,456,478,477,472,477,476,481,497,493,486,478,475,468,462,459,452,443,435,430,444,468,470,462,454,451,445,440,435,433,430,436,445,447,444,449,452,455,451,445,447,451,458,475,495,512,537,571,597,613,625,653,675,672,671,677,682,692,705,725,760,795,811,818,835,842,846,855,872,897,913,916,915,927,939,945,952,965,977,981,982,981,981,982,982,982,982,981,981,981,982,981,982,981,981,980,980,981,981,981,981,981,981,981,981,981,981,981,982,982,981,981,981,981,981,981,981,981,981,981,982,981,981,981,982,982,982,981,981,981,981,981,981,981,981,982,981,981,981,980,973,962,951,943,936,927,922,913,900,888,882,884,887,885,880,870,853,843,842,851,858,862,861,856,858,855,849,833,826,824,812,795,780,778,790,790,785,786,772,761,757,743,729,730,735,728,716,706,698,685,686,680,683,678,681,704,708,699,687,689,683,687,691,686,677,681,684,678,675,668,659,655,659,666,665,668,674,676,671,665,657,648,641,631,629,628,620,610,609,635,642,630,621,615,614,610,598,598,614,623,636,634,631,637,635,627,617,621,637,630,622,621,615,614,615,633,654,662,673,679,679,679,676,671,662,651,648,653,647,674,682,689,696,697,688,675,665,663,666,671,678,679,669,656,647,642,639,658,679,681,678,676,673,662,670,687,698,694,682,678,685,671,668,681,685,688,686,691,692,691,700,707,706,704,706,715,712,705,705,698,694,687,701,715,715,722,731,728,724,726,728,732,724,717,726,740,735,726,724,729,727,719,726,735,736,732,732,723,722,734,733,734,733,730,729,727,721,719,729,732,732,729,725,733,730,718,723,724,727,725,731,733,730,726,724,727,726,720,718,721,727,726,724,723,721,722,721,720,717,715,720,722,717,710,707,709,721,729,727,720,709,699,700,708,703,690,685,692,687,696,700,701,696,692,691,688,687,685,683,684,683,682,685,687,685,684,680,673,666,669,671,668,666,666,662,657,658,663,662,651,644,651,651,650,650,649,648,655,662,659,654,648,637,628,632,637,638,638,638,637,634,631,626,619,618,624,622,615,610,609,607,605,604,604,599,594,592,590,583,578,575,573,571,571,568,565,563,562,560,557,556,555,551,548,547,551,551,552,552,550,549,550,546,536,531,526,524,521,518,515,517,520,516,511,504,498,497,490,497,503,507,505,496,497,495,488,485,481,477,476,474,471,467,464,461,459,457,454,455,460,463,461,454,449,442,434,431,437,435,428,420,417,415,415,414,412,412,411,410,409,408,404,404,403,400,396,388,388,388,386,385,383,377,371,368,373,377,377,373,369,375,379,373,367,366,366,359,354,350,348,352,351,346,342,339,337,334,331,327,324,321,319,318,318,317,314,309,304,305,309,311,308,305,303,298,294,291,290,288,287,284,283,282,278,273,271,267,267,266,275,277,275,283,282,278,273,269,265,263,260,256,252,248,246,243,245,242,246,255,260,261,258,253,250,246,243,240,242,239,240,237,236,236,234,231,227,224,221,221,220,217,214,210,207,208,209,210,207,205,202,200,197,194,191,188,185,183,180,178,175,173,171,167,167,166,163,161,159,157,155,156,158,158,161,160,158,156,154,155,158,156,154,156,157,163,165,162,160,158,156,154,108,111,110,110,108,108,106,105,103,102,104,108,107,106,106,113,118,117,116,114,113,112,111,109,108,107,106,110,113,116,115,113,112,111,111,110,109,110
14,14,14,14,14,14,13,14,13,14,14,14,14,13,13,14,13,13,13,14,13,14,14,13,13,13,13,13,13,13,13,13,13,13,13,12,13,13,13,13,13,13,13,13,13,13,13,13,13,14,15,15,15,15,14,15,15,15,14,15,14,14,14,14,14,14,14,13,14,14,14,14,15,14,14,14,14,14,14,14,14,13,13,13,15,13,13,13,14,14,13,14,13,13,14,13,13,13,13,13,13,14,13,13,13,13,13,13,14,13,13,13,13,13,13,14,13,13,13,13,14,15,16,15,15,15,15,15,15,14,15,15,15,14,14,14,14,14,14,14,14,14,14,14,14,14,13,14,14,13,14,14,15,14,15,14,14,14,15,14,14,14,14,14,14,14,14,14,14,14,14,14,13,14,13,14,14,15,15,15,15,15,15,16,16,17,18,18,18,18,18,17,17,17,17,17,16,17,17,18,18,19,22,25,31,36,39,39,41,43,47,49,48,49,51,52,53,53,52,52,51,50,49,48,47,47,47,47,54,66,82,97,108,113,115,116,123,134,148,161,171,174,174,171,169,168,177,196,224,255,272,271,269,270,272,283,308,336,365,383,391,385,377,380,399,430,474,507,504,496,505,524,521,538,610,699,740,745,759,806,846,868,873,858,843,831,851,880,894,894,925,943,956,953,943,966,983,983,983,982,981,982,983,982,983,982,983,983,983,982,982,982,982,982,982,982,983,983,982,982,982,972,966,967,981,982,970,972,974,962,977,983,982,983,982,982,982,982,982,982,982,982,982,977,969,962,951,937,923,906,887,876,870,879,902,911,905,894,883,880,888,893,896,894,889,879,866,847,830,815,806,794,781,769,755,743,730,718,714,723,738,734,723,723,726,722,721,717,709,701,692,683,674,665,655,643,631,620,609,599,588,578,568,558,549,540,531,522,513,504,495,487,479,471,463,455,447,440,432,425,418,411,405,399,394,388,382,377,371,366,361,358,356,349,345,343,343,339,334,329,327,327,327,324,320,318,315,311,309,306,302,297,292,288,283,278,278,275,271,269,266,263,259,254,249,245,241,239,236,230,226,221,219,216,216,218,214,210,211,214,219,222,221,219,216,211,207,204,204,208,211,211,219,227,226,228,234,236,236,234,231,229,225,226,228,227,223,219,217,216,213,211,209,207,204,202,202,199,195,192,189,186,183,179,176,174,172,169,166,163,160,159,158,157,153,151,150,150,152,151,147,144,142,141,140,138,138,135,133,131,129,126,124,123,121,119,117,114,113,111,109,108,106,103,103,101,100,98,97,95,93,91,90,88,87,86,84,83,81,80,78,77,76,75,73,72,71,69,68,68,67,66,64,63,62,61,60,58,58,57,56,55,54,54,53,52,51,50,51,50,49,48,48,48,47,47,46,45,44,44,43,42,42,42,41,41,40,39,39,39,38,37,37,37,36,36,36,35,34,34,33,34,35,35,34,33,33,33,32,32,33,33,33,33,32,32,31,31,30,30,30,30,30,30,29,29,28,28,28,28,27,28,27,28,28,29,28,28,28,27,27,27,26,26,25,25,26,25,24,24,24,24,24,24,24,24,23,23,23,23,23,23,23,22,22,22,22,22,22,22,22,21,21,22,23,22,23,23,23,22,22,22,22,22,22,22,21,21,22,22,23,24,24,24,24,24,24,24,23,23,23,23,23,22,23,22,22,22,21,21,21,20,21,21,20,20,21,20,20,20,20,19,19,20,19,19,19,19,19,18,19,18,19,17,18,18,18,18,18,18,17,17,17,17,17,17,17,17,17,19,19,19,19,19,19,19,19,19,19,20,20,20,19,19,19,19,19,18,19,18,19,19,19,18,18,18,18,18,18,18,18,18,17,18,17,17,17,17,17,17,18,18,18,17,17,17,18,18,18,18,18,18,18,17,17,18,17,17,17,17,17,17,17,17,17,17,16,16,16,16,16,16,16,16,16,15,16,17,17,17,18,19,18,17,18,18,17,17,17,17,18,17,17,17,16,16,16,16,17,16,16,16,16,16,16,16,16,15,16,15,15,15,15,15,15,15,16,15,15,15,16,15,15,15,15,15,15,15,15,14,15,15,15,15,15,15,14,15,14,14,14,14,14,14,15,14,14,14,14,15,15,14,14,15,14,14,15,14,13,14,15,14,15,14,14,15,14,14,14,14,14,14,15,14,15,15,15,15,15,15,15,15,15,15,14,14,14,14,14,15,14,14,14,14,14,14,14,15,14,14,13,14,14,14,14,14,14,14,14,14,13
109,109,110,113,118,119,119,117,116,115,113,113,114,113,113,114,114,115,116,117,118,117,116,115,113,113,112,113,113,113,112,112,115,116,115,119,123,125,126,126,127,124,123,124,125,124,123,122,122,121,122,121,121,120,125,128,127,126,126,127,127,129,128,126,124,123,124,129,133,134,133,133,131,130,128,126,126,127,129,131,132,133,133,132,130,128,128,129,133,133,133,135,133,131,131,139,145,146,146,148,150,148,149,149,151,149,148,146,144,143,143,143,143,143,141,140,140,141,141,141,144,145,146,147,146,146,147,148,146,145,144,142,140,145,150,153,154,154,152,149,148,146,146,145,146,146,145,145,147,152,153,152,149,149,150,153,151,150,150,149,147,145,144,143,142,141,146,152,151,150,149,147,145,144,144,147,151,155,156,156,155,159,159,159,165,169,173,171,169,169,169,174,177,175,172,171,172,171,170,169,169,168,170,174,174,173,173,173,175,173,171,171,168,166,165,163,165,166,164,165,163,165,173,178,182,189,191,198,198,199,202,201,197,198,204,213,221,224,226,232,232,231,228,224,221,217,215,214,216,215,213,213,215,220,220,217,220,225,225,226,222,218,215,215,223,235,236,233,229,240,246,245,251,249,251,252,255,267,273,270,267,272,269,268,264,262,257,263,278,280,292,296,296,295,289,287,283,279,278,283,286,295,296,296,294,295,291,287,288,303,317,313,308,304,299,300,304,304,304,306,313,322,331,351,375,402,430,432,435,442,454,462,467,473,488,505,515,512,514,514,518,523,525,530,536,535,534,537,546,554,557,555,565,575,575,577,583,590,594,586,575,570,566,562,559,557,556,554,553,553,549,543,538,533,530,525,520,516,513,509,504,501,495,489,482,476,470,463,458,452,446,440,434,429,424,419,414,406,399,391,384,377,370,365,366,361,355,350,343,337,333,330,325,321,316,312,307,303,298,293,288,283,280,281,282,283,289,295,298,296,292,287,286,284,289,294,291,301,323,326,323,322,317,312,307,311,325,328,323,320,322,335,344,347,344,346,351,352,352,360,362,363,359,358,354,364,385,382,375,385,400,397,406,413,406,402,429,450,446,442,437,436,428,424,419,420,445,463,468,463,459,451,446,440,456,488,507,499,500,517,547,553,588,589,581,574,567,566,556,548,563,589,615,616,603,592,584,576,570,577,573,568,561,566,567,564,573,574,586,597,589,599,599,608,607,601,605,601,612,617,611,606,624,684,685,686,688,681,668,656,657,666,672,667,665,667,656,646,646,661,670,659,656,672,690,699,694,686,677,676,684,676,672,674,678,676,679,681,682,683,683,677,680,685,681,671,659,656,676,670,659,659,664,657,662,669,668,663,666,671,672,669,663,656,657,664,677,681,677,682,675,665,670,672,676,678,677,678,683,690,682,674,666,670,675,674,677,681,683,683,685,685,685,683,682,686,687,679,668,661,662,672,679,684,677,682,681,680,677,675,675,672,672,670,668,667,668,669,668,667,658,653,656,660,655,643,640,655,663,664,663,661,659,658,656,655,654,653,653,653,652,648,644,642,643,651,651,642,636,638,634,622,619,629,636,634,636,640,643,636,632,631,629,626,624,622,618,617,618,622,623,619,616,614,612,610,609,609,604,603,604,604,604,601,602,603,597,586,581,595,600,591,586,581,580,584,586,586,594,602,601,597,587,577,577,572,569,571,568,560,559,565,572,575,569,563,559,557,554,550,550,556,565,583,587,588,591,589,586,584,580,576,573,571,569,569,566,562,558,554,552,549,547,544,541,538,539,538,532,524,519,512,507,503,508,509,511,512,511,510,506,504,502,494,486,495,504,506,502,497,492,487,484,480,478,476,474,473,475,476,473,471,463,461,460,452,445,441,441,440,439,438,433,426,427,433,435,435,430,425,424,427,424,423,430,430,425,419,418,417,417,420,422,418,410,403,397,392,387,385,385,386,396,400,398,394,395,395,392,390,387,380,376,381,377,371,371,370,368,364,359,357,354,349,347,348,348,349,348,344,340,339,339,337,335,333,332,330,328,324,324,324,320,315,318,318,315,314,314,311,310,310,304,300,304,301,296,292,288,285,285,280,280,277,281,284,286,286,282,280,285,287,303,317,316,310,305,301,297,294,291,288,284,282,279,275,273,273,271,268,263,261,263,263,262,260,256,253,251,249,249,115,114,115,118,122,122,120,118,117,116,115,115,118,121,126,133,136,138,139,141,145,146,147,146,144,142,140,141,139,140,145,148,146,145,143,142,140,138,137,135
14,14,14,14,14,15,14,15,15,15,15,14,14,15,14,14,14,14,14,14,14,14,14,14,14,14,14,14,14,14,14,14,14,14,13,13,14,13,14,13,14,14,14,14,13,13,13,13,13,13,13,13,13,13,13,13,14,15,15,15,15,15,16,15,15,15,15,15,15,14,14,15,14,14,14,14,14,14,15,14,14,14,14,14,14,14,13,14,14,14,14,14,14,14,14,14,14,13,14,14,13,13,13,13,13,13,13,13,13,13,13,13,13,13,13,14,14,14,14,15,15,15,16,16,15,15,16,15,15,15,15,16,15,15,15,15,15,15,14,14,15,14,14,15,14,14,14,15,14,15,15,14,14,15,14,14,15,14,14,14,14,14,15,15,16,15,16,17,17,17,17,16,16,16,16,16,16,17,17,17,17,17,16,16,16,16,16,16,16,16,16,16,16,16,16,15,16,15,15,15,16,16,18,18,18,18,20,22,23,23,25,24,24,27,31,36,38,41,41,42,44,45,46,49,56,70,84,98,105,108,107,108,112,112,112,116,117,116,119,123,125,125,123,120,119,119,121,126,130,135,137,136,135,133,133,140,144,143,141,143,154,164,167,169,172,176,193,219,249,277,299,305,305,318,320,316,311,310,328,345,348,343,354,370,379,381,380,387,381,375,392,415,428,429,433,454,468,475,469,474,480,476,476,470,467,462,459,454,446,442,443,461,490,514,518,525,539,542,534,530,522,513,530,565,611,624,626,639,666,698,704,695,703,726,736,727,721,707,703,690,679,669,657,656,672,698,704,697,697,695,696,697,710,718,718,710,725,762,797,797,805,792,787,780,771,771,760,758,755,745,736,725,713,718,732,731,736,750,749,735,720,707,697,686,675,675,692,719,746,761,754,757,766,750,735,729,719,716,709,704,724,759,760,795,837,853,858,855,849,842,832,814,797,781,764,748,733,728,721,713,703,691,680,668,656,645,633,621,609,597,585,575,564,555,546,536,528,518,510,500,491,482,472,463,453,444,441,436,427,417,410,407,406,404,397,391,392,393,385,383,381,373,366,361,361,367,367,361,354,347,342,337,332,329,330,329,327,324,318,311,306,301,297,292,286,280,275,272,270,266,261,256,255,254,253,250,250,253,255,252,249,246,242,237,233,229,226,225,222,217,212,209,208,204,202,200,198,197,195,191,187,184,186,186,183,179,177,176,173,170,169,172,171,169,172,175,176,175,172,169,167,163,160,159,158,157,155,153,151,147,144,142,140,138,136,137,140,138,135,133,130,128,127,125,124,123,122,120,117,115,113,112,111,110,109,109,107,108,106,105,103,100,99,97,95,94,93,92,92,91,89,88,86,84,83,82,80,80,79,78,77,76,75,73,72,70,70,70,70,71,69,69,68,68,67,66,64,64,63,62,61,60,59,58,58,57,56,56,55,54,53,52,52,52,50,50,49,48,49,49,48,47,47,46,46,46,44,44,43,43,43,43,42,42,42,41,41,40,39,39,39,38,38,37,37,36,36,36,35,34,34,34,34,33,33,32,32,32,32,33,33,33,33,33,33,33,32,32,32,31,32,32,33,32,31,31,30,31,30,30,30,29,29,30,30,30,29,29,29,29,29,28,29,28,27,28,27,27,26,26,26,26,26,25,25,25,25,25,25,24,24,24,24,25,24,24,24,24,24,24,24,23,23,23,23,22,22,22,21,21,21,21,21,21,22,22,22,22,22,23,22,22,22,22,22,23,23,22,22,22,22,21,21,21,21,21,21,20,20,21,20,20,20,20,20,20,20,20,20,20,20,20,20,19,19,19,18,19,19,19,18,18,18,18,18,18,18,19,18,19,18,18,18,18,17,17,17,18,19,20,20,21,21,22,22,22,22,22,22,22,22,23,22,21,21,21,21,20,21,22,22,21,22,21,22,22,23,23,22,22,23,21,22,24,23,24,23,23,24,23,24,25,24,25,24,23,23,23,23,23,22,22,22,22,21,21,21,21,21,21,21,20,20,21,20,20,19,19,19,20,20,19,19,19,19,19,20,19,20,19,18,18,19,19,18,17,18,18,18,19,19,18,18,18,19,18,18,18,19,19,19,19,18,19,18,18,18,19,19,18,18,18,18,17,18,17,17,17,17,17,17,17,18,18,18,18,17,18,17,17,17,17,17,17,17,17,16,17,16,13,14,13,13,13,13,14,13,13,13,13,13,13,13,13,13,13,13,13,13,14,14,13,13,13,13,13,13,13,13,13,13,13,14,13,14,13,12,13,13,13,13
135,140,144,143,142,141,139,138,136,134,132,130,129,127,125,124,123,122,121,123,122,120,119,117,117,116,115,114,114,113,112,112,114,119,119,117,116,119,119,118,117,116,117,117,116,115,118,119,119,122,128,135,135,133,132,131,131,130,127,126,127,126,126,125,124,127,127,126,124,122,122,124,125,126,127,127,126,124,123,121,121,125,126,125,124,122,122,119,119,117,117,116,114,114,112,111,110,109,110,112,112,111,110,108,108,113,113,112,112,117,117,117,116,115,113,116,118,116,115,116,116,116,115,117,120,120,118,117,117,115,114,113,113,115,120,120,119,118,119,117,118,121,120,120,121,126,125,124,128,129,130,131,130,129,129,129,132,133,132,132,133,136,137,135,135,141,145,143,141,141,144,147,150,149,148,146,144,144,145,146,145,143,141,140,139,142,150,153,151,149,147,151,158,164,163,162,163,163,169,174,175,179,184,189,192,188,186,185,184,182,186,187,188,192,197,203,204,203,200,201,211,215,215,215,215,214,217,217,228,245,248,250,251,251,264,275,284,280,290,289,304,322,327,332,330,329,351,358,359,365,366,359,353,348,345,360,379,386,383,382,385,388,395,402,408,414,418,423,435,445,449,449,448,440,432,431,434,440,441,437,445,447,442,441,441,455,464,461,452,446,451,457,471,486,480,474,465,464,473,468,462,465,460,453,446,447,446,439,433,445,460,456,449,441,432,430,428,421,413,406,398,399,414,443,471,470,465,463,457,451,443,434,430,437,443,444,453,465,470,476,477,473,477,482,488,510,549,571,578,581,571,564,563,562,560,566,571,574,581,593,612,631,637,649,671,684,687,691,698,691,683,680,674,672,671,670,667,668,671,665,659,663,666,667,668,668,670,679,681,683,687,691,695,694,691,688,688,690,699,704,696,693,695,690,684,676,665,652,639,627,627,636,636,635,633,631,631,634,635,628,620,613,610,612,608,602,598,590,581,573,564,554,551,545,540,530,521,514,506,499,493,483,478,477,471,464,463,459,452,444,437,431,423,417,411,403,395,388,388,399,398,396,398,396,401,413,415,416,424,434,440,438,435,430,422,415,409,402,398,413,424,420,413,418,423,416,417,433,440,436,431,427,430,431,429,437,444,450,445,440,435,432,443,441,443,441,445,461,471,479,482,476,495,501,509,525,516,506,506,511,513,516,523,537,543,535,532,548,542,539,544,546,544,557,566,576,587,584,573,574,587,587,581,585,574,564,559,555,547,561,584,592,621,631,636,638,635,623,623,627,626,634,637,639,633,621,611,600,592,616,614,650,655,646,652,649,643,641,636,630,634,635,634,641,631,621,616,618,615,606,596,587,593,592,605,625,628,619,610,599,592,584,578,575,569,564,566,583,586,597,604,597,585,580,581,595,594,592,606,597,592,585,601,612,605,594,586,587,588,580,572,565,571,574,574,583,578,567,558,549,544,551,570,563,555,553,547,568,582,581,573,566,559,550,549,545,538,543,542,533,530,532,527,519,516,521,516,509,509,515,515,507,498,493,487,482,474,481,488,492,483,478,471,470,466,481,497,496,493,493,492,484,475,472,472,477,468,466,472,472,464,455,449,446,442,439,434,439,453,457,455,447,443,441,441,439,433,432,430,426,423,420,420,417,422,419,422,417,414,414,413,410,408,405,400,397,395,393,391,388,383,377,374,368,364,363,364,370,372,382,382,377,376,374,371,367,366,364,357,351,349,346,340,339,346,350,346,345,343,350,354,354,356,356,350,344,339,334,334,329,325,322,319,317,312,308,303,298,299,300,295,292,288,288,291,287,281,278,274,271,270,271,277,277,273,271,267,264,261,260,262,260,260,257,253,251,257,256,253,260,259,256,254,251,248,244,240,238,235,233,230,230,231,230,234,234,234,231,233,231,227,223,223,221,221,222,223,222,219,216,213,209,209,210,209,206,203,202,200,197,194,191,190,187,187,187,189,187,184,182,187,193,195,198,202,203,202,202,198,201,199,198,201,204,203,200,199,197,195,193,191,189,187,185,185,184,182,179,177,175,185,209,209,214,219,217,221,221,224,222,219,219,217,216,214,213,211,209,207,204,202,200,198,198,198,195,192,190,190,190,193,194,192,193,194,196,198,212,212,223,221,218,214,211,209,211,214,213,214,218,217,214,210,207,207,205,202,200,200,84,84,83,84,84,83,82,81,82,83,87,88,92,95,94,93,93,94,94,93,91,94,94,93,93,93,94,93,93,92,93,91,93,92,91,91,90,89,90,92,91,90
13,13,13,13,13,14,12,12,13,12,12,13,13,12,13,12,13,13,13,14,13,12,13,12,12,12,13,12,14,12,12,12,13,12,13,12,12,13,12,12,12,12,12,12,13,12,12,13,12,12,12,12,12,12,12,12,12,12,12,12,12,12,12,13,14,13,13,12,13,13,13,13,13,13,13,13,13,13,13,13,13,13,13,13,13,13,13,13,13,13,12,13,12,13,12,12,13,13,12,13,12,13,12,12,13,12,12,12,13,12,12,12,12,12,12,12,12,12,12,12,12,12,12,12,13,13,12,12,12,12,12,12,12,13,12,12,13,13,13,13,13,13,14,14,13,13,13,13,13,13,14,14,14,13,13,14,14,14,13,13,13,14,13,13,13,13,13,13,13,13,13,13,13,13,14,14,13,13,15,18,20,21,22,22,21,23,22,22,22,21,22,23,23,22,22,23,27,34,45,58,67,71,75,79,94,110,116,117,118,116,114,112,118,129,145,163,173,172,173,176,176,174,171,171,179,181,189,199,202,206,213,212,222,238,257,289,327,350,354,351,353,353,353,364,393,428,460,490,506,509,514,508,505,504,500,503,497,504,515,511,529,556,558,562,565,555,557,572,570,573,570,568,615,682,721,725,761,770,766,781,777,790,807,814,811,813,805,788,779,769,759,765,784,815,829,832,822,816,826,829,825,814,806,799,796,794,780,777,774,765,773,765,767,777,787,776,760,757,752,749,779,790,794,797,799,796,790,783,774,763,748,732,717,713,715,708,708,705,701,689,680,677,684,716,751,750,757,780,790,792,781,765,751,741,738,734,729,722,712,704,694,683,672,663,654,645,636,626,616,606,596,586,577,568,559,550,541,533,525,518,511,503,494,485,477,466,456,447,438,433,427,422,419,415,409,402,397,393,390,386,383,378,373,368,363,358,354,350,342,335,328,323,321,318,316,311,309,309,307,306,305,302,300,300,300,300,299,299,294,288,283,277,271,266,260,259,258,255,250,245,239,235,233,228,225,223,220,219,218,215,212,210,207,205,202,200,198,196,192,189,185,182,180,179,177,177,177,176,171,172,176,183,181,183,188,191,191,191,187,185,183,179,177,174,170,168,167,166,164,162,159,157,155,154,152,149,146,143,141,140,140,140,139,137,135,133,130,127,126,125,123,121,120,119,116,114,112,110,109,108,107,107,105,105,103,101,100,98,97,95,93,92,90,91,89,88,86,84,82,81,81,80,81,81,80,79,78,78,77,76,75,75,74,73,72,70,70,68,67,66,65,64,63,62,61,60,59,58,58,57,57,57,56,54,54,54,53,52,52,51,50,49,49,48,47,47,46,45,44,43,43,43,42,42,42,41,41,40,40,41,41,40,39,39,39,38,38,38,38,37,37,36,36,35,34,34,34,34,34,34,33,33,32,32,32,31,31,30,31,31,30,30,30,30,31,30,30,30,30,29,29,29,28,28,28,28,27,27,26,26,25,25,25,25,25,25,24,24,24,24,23,23,23,23,22,23,23,24,26,28,29,30,31,31,31,30,30,30,30,30,29,30,29,29,29,28,28,29,29,28,28,28,27,27,26,26,26,26,25,25,25,25,24,24,24,23,24,23,23,23,22,22,22,22,21,21,21,21,21,21,21,21,21,20,20,19,20,20,19,20,19,19,19,19,18,18,19,19,20,20,20,20,19,19,19,19,19,18,19,19,18,18,18,18,18,18,18,18,18,19,18,18,18,18,18,19,18,18,18,18,17,18,17,17,17,17,17,17,16,17,16,16,16,17,16,17,16,16,16,16,15,16,15,15,15,16,15,16,15,16,15,15,15,15,14,15,15,15,15,15,16,15,16,16,15,15,15,15,15,15,15,14,15,15,15,15,14,14,14,15,14,14,15,14,14,15,14,14,14,14,14,14,14,14,14,14,14,14,14,14,13,13,13,14,13,13,13,14,13,13,13,13,13,13,13,13,13,14,14,13,13,13,13,13,13,13,13,13,13,13,13,13,13,13,13,13,13,13,13,13,13,13,13,13,12,13,13,13,13,13,13,13,13,13,13,13,13,13,13,13,12,13,13,13,12,12,12,12,12,13,13,13,13,13,13,12,12,12,13,13,13,13,12,12,13,13,12,13,13,13,13,13,13,12,13,13,13,12,12,12,13,12,12,13,13,13,13,18,18,19,18,18,18,18,18,17,17,17,17,17,17,17,18,17,17,17,17,16,16,17,16,16,16,16,16,16,16,16,16,16,16,15,16,15,15,15,16,15,15,15,15
91,89,89,88,88,87,86,89,89,88,87,87,86,85,85,85,84,84,83,82,82,81,81,80,79,80,78,78,78,76,77,76,76,76,77,76,75,75,74,81,87,88,91,94,94,93,93,93,92,90,90,89,90,94,95,93,93,92,91,90,92,92,91,90,89,89,88,88,87,87,87,86,85,85,84,84,83,82,82,81,81,80,79,79,78,78,77,77,76,76,75,75,74,74,73,73,73,72,72,72,71,71,71,75,79,80,79,79,78,79,82,85,84,83,82,87,94,94,93,94,94,92,92,91,90,89,88,87,87,86,87,87,87,88,90,90,90,91,94,93,93,92,91,90,90,91,91,93,94,92,92,92,90,89,89,88,88,87,87,88,88,88,87,86,86,85,84,83,83,83,82,81,81,82,86,90,91,91,90,90,89,88,88,87,86,86,85,85,84,84,83,82,82,83,83,83,82,82,83,93,108,115,119,126,128,136,141,145,146,147,145,145,145,143,144,151,155,159,162,172,179,179,180,185,192,195,192,189,186,182,180,178,182,186,183,186,189,188,195,209,211,210,222,229,233,244,247,246,249,255,255,258,266,271,276,281,278,273,274,278,280,286,297,307,310,318,321,318,319,322,318,319,327,325,323,320,319,322,336,343,342,340,345,345,340,335,328,323,322,330,327,322,320,327,342,352,361,365,358,356,357,360,362,363,383,405,414,412,412,415,417,428,448,453,451,468,491,494,492,494,494,491,492,490,485,484,487,497,507,503,501,500,500,501,494,489,486,485,483,479,476,474,471,472,474,469,468,471,470,465,459,453,449,444,439,433,428,424,419,414,410,406,402,398,394,389,384,378,373,367,362,356,351,345,339,333,327,322,316,310,305,300,294,290,288,289,288,290,290,286,286,291,293,297,312,323,322,319,317,313,313,313,311,307,302,298,299,293,289,287,291,303,309,314,313,311,314,311,306,305,316,317,312,308,314,320,315,318,324,325,349,373,378,374,368,362,358,375,389,405,399,393,394,392,386,381,388,408,419,419,424,422,424,421,425,426,435,449,445,446,452,462,485,501,504,494,503,517,517,537,542,533,530,529,523,527,536,533,529,530,532,539,549,542,533,535,535,536,534,547,547,555,563,577,599,592,600,624,628,624,618,617,613,605,594,599,614,605,609,621,614,605,600,590,583,578,585,581,593,591,588,576,572,584,590,591,589,582,572,574,576,567,562,573,581,579,581,593,606,614,607,596,586,580,575,572,570,568,563,556,553,556,558,558,557,554,551,541,545,550,541,534,527,526,528,537,544,550,560,560,552,548,545,543,541,540,538,538,537,537,535,534,531,531,534,529,520,515,521,520,514,519,522,516,517,518,522,525,519,511,511,514,515,514,512,511,508,507,506,506,505,504,503,503,503,500,500,498,497,496,493,491,489,481,474,482,492,485,484,491,486,480,484,487,486,479,471,470,468,467,464,460,460,462,462,462,461,460,456,452,449,447,444,442,439,437,435,434,432,430,428,426,422,415,407,400,397,393,387,403,423,425,426,421,419,418,431,440,447,443,442,441,433,426,424,422,415,408,401,395,388,383,382,380,376,373,369,364,361,359,360,359,354,351,349,349,347,344,340,338,337,335,333,334,334,331,330,331,327,326,325,333,341,343,341,339,334,328,323,320,315,310,305,305,303,298,294,297,304,308,311,316,314,310,306,301,303,300,300,302,298,303,308,308,304,299,296,294,301,311,307,303,298,294,289,286,283,279,274,270,267,263,260,256,254,252,249,246,244,241,239,236,233,230,227,223,220,219,225,228,224,221,218,215,213,212,212,209,205,202,203,203,202,208,212,214,221,218,214,216,219,217,214,212,212,214,212,208,205,204,201,198,195,192,190,186,183,183,188,189,195,194,192,192,190,188,185,182,182,182,182,181,179,176,174,172,169,166,165,163,161,159,158,161,161,164,162,160,158,155,154,153,154,153,154,158,159,157,155,153,151,149,149,152,152,158,169,169,169,171,171,169,166,164,161,159,157,155,153,152,151,149,146,147,146,145,143,142,140,141,148,162,170,177,181,179,179,176,174,175,174,172,169,167,170,170,170,167,165,161,161,161,159,163,171,174,175,184,184,182,180,177,174,172,171,178,188,185,186,183,182,179,178,179,181,182,180,178,176,174,175,173,171,172,173,174,177,286,283,279,275,272,270,274,275,272,272,274,274,274,285,286,288,294,300,318,326,320,315,313,308,311,309,304,304,305,301,298,298,297,298,299,300,305,301,302,307,308,303,300,311
15,15,15,15,15,15,15,16,16,16,16,16,16,16,15,15,15,16,16,16,16,16,16,15,15,16,15,15,16,15,16,15,16,16,16,15,15,15,15,16,15,16,15,15,15,15,15,15,15,16,15,15,15,15,15,15,15,15,15,14,15,15,15,16,17,18,18,18,18,18,19,18,18,18,18,17,18,17,17,17,17,17,17,17,16,17,16,17,19,19,19,20,19,19,19,18,18,19,18,18,19,18,18,19,18,18,17,17,18,18,18,17,18,17,18,17,17,18,17,17,17,17,16,16,17,16,17,17,16,17,17,17,17,17,18,18,18,18,18,18,18,17,17,17,17,17,17,18,19,19,19,18,18,18,18,18,18,17,17,17,17,17,17,17,17,18,17,18,17,17,17,16,17,17,18,17,17,17,18,19,18,18,18,18,18,18,19,18,18,18,18,18,18,17,17,18,17,17,17,17,17,17,17,17,17,17,17,17,17,17,16,17,18,18,18,19,19,19,18,18,18,18,18,18,18,18,17,18,19,20,20,19,19,19,19,19,19,19,19,19,19,18,18,18,18,18,17,18,19,17,18,18,18,19,20,20,20,21,20,20,21,23,22,22,22,23,24,25,25,27,27,30,30,31,31,32,31,31,30,31,30,30,29,30,31,32,31,31,31,31,30,30,30,30,30,29,28,28,28,28,28,28,28,27,27,27,27,28,29,29,30,31,31,33,31,31,31,32,32,32,32,32,32,32,33,36,36,36,37,37,37,37,39,42,44,46,45,47,50,54,59,61,60,59,59,62,70,83,93,100,101,105,104,105,112,120,127,129,128,130,130,132,142,156,167,173,180,181,178,176,174,177,175,181,193,214,245,278,302,302,307,323,338,344,342,357,379,398,403,397,403,420,448,477,482,471,467,472,486,497,495,485,479,470,462,459,471,474,480,499,510,507,508,526,546,560,566,563,556,551,545,546,559,569,570,573,575,575,568,583,611,631,626,619,605,602,601,605,625,651,694,707,698,709,734,750,763,767,762,752,737,731,762,808,839,848,853,841,836,866,884,871,863,876,883,894,887,887,892,887,882,883,883,867,850,836,824,825,836,844,849,855,845,857,875,870,880,894,889,902,927,941,944,930,938,964,983,983,983,982,982,983,982,982,982,973,973,983,983,983,982,982,977,961,960,958,946,963,980,980,967,960,965,957,943,925,917,903,897,901,905,907,904,894,878,860,842,834,826,815,803,791,779,766,755,743,732,719,708,696,685,672,661,648,636,624,611,598,586,574,567,559,553,550,542,533,524,515,504,498,493,484,480,483,487,487,483,478,472,468,462,455,452,452,446,437,428,420,416,411,406,398,390,384,377,372,367,363,359,353,350,349,347,341,335,328,322,316,314,315,309,306,304,299,300,302,304,304,302,296,291,292,295,290,285,290,298,300,301,296,291,291,294,294,295,292,287,282,288,292,294,295,291,284,279,272,267,266,264,263,261,260,257,253,250,248,245,243,240,236,232,228,224,219,215,211,209,211,209,205,203,200,195,191,188,186,187,186,184,182,178,176,177,176,176,174,173,171,168,165,161,159,157,156,156,154,153,152,149,148,145,142,139,137,135,133,134,135,134,132,130,128,126,125,123,120,119,117,115,114,112,112,111,110,109,108,106,105,103,101,100,99,98,98,96,95,93,91,90,89,89,88,88,86,86,86,85,83,83,82,82,82,81,82,80,79,78,76,77,76,76,74,73,72,71,72,71,71,71,71,70,69,67,66,66,68,68,68,68,68,66,65,65,65,64,63,61,61,60,61,59,58,58,60,62,64,64,63,62,62,62,61,61,61,59,59,60,59,59,58,57,57,56,55,54,54,54,53,53,51,52,50,49,49,49,49,50,50,49,50,49,49,48,47,47,46,46,48,48,49,49,48,49,49,49,49,48,48,48,47,47,47,47,45,45,44,44,43,42,41,42,42,42,42,43,42,41,41,41,41,40,40,41,41,41,41,41,41,40,41,40,40,39,39,39,38,39,38,38,37,37,37,37,37,36,36,35,36,37,36,36,36,35,36,36,36,35,35,35,35,35,33,34,34,34,35,35,35,34,34,35,33,33,33,33,33,33,32,32,31,31,31,31,31,31,30,31,30,30,30,30,30,30,29,29,29,29,29,28,28,27,27,27,26,26,14,14,13,14,14,14,14,14,14,14,14,14,14,14,13,14,13,13,13,13,14,13,13,13,13,13,13,14,14,14,14,15,15,15,14,15,15,14,14,14,15,14,15,14,14,14
334,335,331,328,332,330,325,319,314,315,318,326,325,319,314,312,311,313,317,325,333,331,339,343,337,333,339,340,334,335,340,342,344,340,333,344,375,400,410,406,400,398,397,394,398,403,402,401,393,388,386,381,383,387,388,389,390,390,390,387,390,395,395,394,388,383,386,388,388,390,394,402,411,408,404,398,393,396,395,396,402,412,417,420,413,406,402,402,406,409,411,410,408,407,402,401,407,410,413,416,418,425,425,422,422,420,418,416,414,416,419,420,418,419,425,424,422,417,422,427,431,433,432,432,434,439,438,438,447,444,436,435,441,438,437,440,446,448,452,457,453,455,465,461,454,459,463,470,477,477,479,489,494,497,506,503,495,495,504,509,505,502,500,499,501,501,504,506,505,501,504,508,506,503,506,513,519,521,524,528,531,534,537,540,545,541,538,541,541,543,550,554,553,550,547,546,541,536,533,542,553,564,567,565,565,567,570,566,562,565,558,554,549,553,568,571,582,594,593,598,600,594,592,597,602,594,592,592,596,602,607,611,613,618,621,613,614,617,613,611,613,619,627,634,632,625,625,629,634,633,633,640,634,637,644,644,641,643,644,643,642,640,639,638,639,637,640,642,631,631,638,643,651,656,656,661,662,658,647,652,662,654,648,647,658,671,670,665,672,682,691,690,684,684,679,668,659,670,693,695,694,688,688,692,695,698,695,683,679,698,704,709,707,705,713,720,718,716,723,730,735,747,750,738,733,734,732,737,730,717,720,732,742,756,762,773,797,808,798,788,776,787,800,799,797,807,816,806,802,805,813,819,806,796,799,802,796,796,809,821,813,813,835,870,868,866,880,885,885,892,898,902,904,909,914,918,925,936,944,946,950,948,947,950,956,959,959,961,963,962,961,973,982,981,981,981,981,981,982,981,982,981,982,982,981,982,981,982,982,981,982,981,981,981,982,982,981,982,982,982,982,981,982,981,979,979,978,975,971,970,968,962,958,953,944,952,959,963,962,954,952,952,960,977,981,981,981,982,981,981,982,982,981,981,982,981,981,981,981,981,981,982,981,981,982,982,982,982,981,981,981,981,982,981,981,981,982,982,982,982,981,982,981,981,981,982,981,981,981,981,982,981,981,982,981,981,982,982,981,981,981,982,982,981,982,982,981,981,982,982,982,981,982,982,981,982,980,981,982,981,982,981,981,981,981,981,982,981,981,981,982,980,982,982,982,981,981,981,982,981,982,982,982,981,982,982,982,980,981,981,981,982,982,981,981,982,982,982,982,982,981,982,982,982,981,982,981,982,981,982,981,982,981,982,982,981,982,982,981,981,981,982,982,982,982,982,981,980,981,981,981,981,981,981,981,982,981,982,981,981,981,980,972,970,973,968,956,949,943,928,917,919,919,908,893,876,868,852,838,836,863,878,863,851,854,875,869,853,837,828,824,819,811,800,819,817,821,815,802,790,775,768,757,751,739,737,729,716,713,724,723,719,709,702,699,700,692,682,680,673,670,666,662,685,696,687,688,690,677,670,664,652,675,725,727,724,720,709,695,688,683,695,700,720,720,715,710,702,700,701,703,725,733,722,715,719,711,700,699,696,686,676,692,698,684,680,671,663,655,650,646,643,643,638,648,692,715,739,747,755,744,744,737,731,738,735,736,739,736,723,711,707,710,700,691,679,677,675,692,698,700,696,692,693,689,681,679,688,679,666,669,686,683,680,675,666,661,655,656,680,683,681,681,681,682,678,672,660,659,652,640,639,635,631,629,623,621,625,622,621,618,611,607,604,602,599,590,581,576,575,599,621,613,619,618,607,600,597,595,594,592,592,592,589,585,580,581,583,579,575,577,572,566,562,565,574,573,569,566,559,553,546,538,539,543,549,549,548,544,540,548,553,543,546,551,555,558,557,553,551,546,538,532,535,536,535,534,533,532,531,532,533,529,521,519,521,515,512,512,502,500,511,512,524,529,532,527,523,523,519,517,527,528,519,516,517,513,505,500,495,495,494,493,492,491,491,489,488,487,486,484,483,482,481,480,480,479,478,476,471,466,464,466,465,465,466,462,455,447,444,443,447,465,474,474,475,474,469,462,462,455,450,459,461,458,457,455,447,442,437,443,448,450,448,451,452,446,439,436,431,423,424,427,429,429,430,428,427,427,423,421,417,414,412,412,199,196,193,192,191,191,191,190,189,188,187,185,184,182,180,181,182,181,179,179,178,175,173,171,170,170,168,172,175,173,171,170,167,168,169,166,164,162,160,158,156,156,155,155,154,154
14,14,14,14,14,14,15,15,15,15,15,15,15,15,15,16,15,15,15,14,15,15,16,16,14,15,14,15,14,14,14,15,14,14,14,14,14,14,14,14,14,14,13,14,13,14,14,14,14,14,14,14,14,14,14,15,15,15,15,15,14,14,14,15,15,15,16,15,16,16,15,16,15,16,15,15,15,15,16,16,14,14,14,14,14,14,14,14,14,14,14,14,14,14,14,14,14,14,14,14,14,14,14,13,13,13,13,13,13,13,13,13,13,14,13,14,14,15,14,14,14,14,14,14,14,15,15,16,18,19,19,18,19,19,19,18,18,19,18,18,19,18,18,18,17,17,17,17,17,17,17,17,17,17,17,17,17,16,16,16,16,16,16,16,16,15,16,16,15,16,16,16,15,15,16,16,17,16,17,16,17,17,18,18,17,18,17,18,19,19,19,20,21,21,20,20,20,20,20,20,24,29,33,35,35,35,36,35,36,38,39,39,38,38,37,38,39,43,49,56,61,62,62,64,66,69,72,77,80,80,81,81,82,84,83,84,84,83,85,88,88,86,87,87,85,85,85,89,97,105,114,125,132,131,128,128,128,129,129,129,132,134,137,134,139,145,149,148,146,143,142,146,163,190,218,237,238,240,245,243,238,235,237,235,237,243,252,257,255,250,250,250,247,246,248,267,303,341,368,370,394,418,432,430,438,458,483,494,491,494,505,506,504,526,545,544,533,521,512,509,503,498,496,507,517,514,505,505,522,558,598,628,625,637,656,654,648,652,661,672,671,662,665,664,682,718,743,741,755,777,782,781,774,773,775,771,783,793,786,792,784,787,802,799,789,792,777,763,763,760,754,758,748,752,757,747,747,740,728,712,707,698,698,705,710,717,714,703,691,685,679,695,716,733,743,764,759,772,778,770,776,796,814,804,808,820,831,831,829,834,839,839,834,832,868,918,943,943,932,940,960,961,956,959,958,946,935,937,931,918,914,913,906,897,932,983,983,982,982,982,983,982,983,983,982,983,982,983,983,982,983,982,983,982,982,983,983,983,982,982,982,982,982,983,983,983,983,982,983,983,983,982,983,982,982,982,982,982,982,983,982,982,983,982,983,983,983,971,959,947,933,914,895,876,864,849,858,938,983,982,982,982,982,982,983,982,982,982,982,983,982,983,982,982,979,963,947,931,915,898,882,866,847,829,812,798,785,773,759,743,730,719,714,710,697,684,670,658,649,640,627,620,611,600,595,592,585,579,574,568,561,555,549,542,535,529,523,517,511,504,497,490,480,471,462,455,453,448,444,438,433,426,419,411,403,395,388,382,378,372,368,362,360,357,352,349,345,341,340,338,335,333,330,324,321,315,310,308,306,303,299,296,292,289,286,282,279,277,275,274,271,268,265,261,258,256,253,248,244,238,233,231,228,225,222,221,223,223,221,219,217,215,212,209,205,201,197,193,191,191,192,191,190,187,183,179,177,178,177,176,176,173,170,168,167,167,167,164,161,158,156,154,153,155,156,154,152,149,148,148,144,141,139,136,136,135,135,137,137,137,135,132,130,128,126,124,123,120,119,121,120,118,118,116,119,122,125,125,125,123,121,121,119,117,115,114,116,115,116,115,113,111,110,109,107,104,104,103,101,100,101,100,99,97,96,96,95,95,94,94,92,91,90,89,86,85,84,84,85,86,84,83,82,81,81,80,80,80,80,80,79,78,77,76,75,74,73,72,71,70,69,68,67,66,65,64,64,63,63,62,63,62,62,61,60,59,58,58,59,57,57,57,56,55,54,54,53,52,51,51,50,50,51,51,50,50,49,48,48,47,47,48,47,47,48,47,46,45,46,45,45,45,44,44,44,44,43,43,42,41,42,42,41,40,39,41,39,40,39,38,38,37,38,39,38,38,38,37,38,38,38,38,39,38,37,38,37,37,36,37,36,35,35,35,34,34,33,32,33,32,32,32,31,31,30,30,30,30,29,29,31,31,32,32,32,31,31,31,31,31,31,30,30,30,30,30,29,29,28,28,29,29,28,28,28,28,28,28,28,28,28,27,27,27,26,26,26,26,26,27,27,26,27,27,26,26,26,26,26,26,25,25,25,24,24,24,23,23,24,24,24,24,23,23,23,23,24,23,22,22,22,22,22,22,22,22,22,23,23,22,22,22,22,14,14,14,14,14,14,14,14,14,14,14,15,15,14,14,14,14,13,13,13,13,14,14,14,14,14,14,14,14,15,14,14,14,14,15,14,14,14,14,14,14,14,14,14,14,14,14,14
153,151,151,151,149,148,150,158,165,163,160,159,157,158,157,156,158,159,157,156,154,152,149,148,146,144,142,141,139,138,140,140,141,142,146,148,147,147,151,157,159,159,160,159,157,157,159,164,163,164,162,160,164,171,176,174,172,169,167,164,164,166,166,164,162,164,163,161,159,160,160,158,156,154,153,151,149,152,151,150,154,162,160,159,158,156,154,152,150,148,147,146,146,146,146,153,159,160,157,156,154,151,151,159,163,163,162,160,163,167,170,181,184,182,183,180,178,179,185,189,190,187,184,184,182,182,180,180,180,182,180,177,174,172,172,173,172,170,172,172,174,175,174,176,183,184,182,180,177,174,172,171,173,174,179,184,183,180,178,182,185,184,181,178,175,178,181,179,179,185,186,188,186,184,186,197,207,206,204,203,201,202,200,198,201,202,201,209,210,215,221,221,228,238,241,253,263,261,260,256,259,298,320,324,319,331,338,342,341,339,354,357,354,355,352,348,348,344,355,362,361,363,378,390,389,389,403,411,405,408,412,417,411,404,402,406,414,407,401,402,442,453,453,455,452,454,455,459,461,453,446,446,443,439,462,469,468,466,473,481,488,491,492,503,506,508,533,533,523,513,510,511,508,519,531,534,535,527,526,532,553,572,565,563,570,582,589,586,576,580,596,600,603,605,597,588,584,589,597,589,578,579,582,582,589,589,591,582,570,562,555,547,538,531,527,523,516,507,500,495,490,492,514,515,515,510,501,491,487,500,496,497,494,489,508,521,513,510,519,525,520,515,516,514,522,535,561,579,579,573,571,575,596,624,657,683,676,675,686,701,713,735,759,765,764,766,773,786,815,853,875,897,919,913,917,930,958,974,982,981,982,982,982,981,981,982,982,981,981,982,981,981,982,981,981,982,980,982,981,982,981,982,982,981,980,981,981,982,982,982,982,981,980,981,981,981,981,982,981,981,982,982,982,981,981,982,981,982,982,982,982,981,982,981,981,982,981,981,981,982,982,982,981,981,982,982,982,982,982,981,982,981,982,981,981,981,982,980,982,982,982,981,981,982,981,980,982,980,982,981,982,982,981,981,982,981,982,982,982,981,982,982,982,982,982,981,981,980,981,981,981,981,981,981,981,981,982,981,982,981,981,982,981,981,982,981,981,982,981,981,980,981,982,981,982,982,981,982,981,982,982,981,981,981,982,982,982,982,982,982,982,982,982,981,981,982,981,981,981,981,982,981,981,982,982,982,981,982,981,981,982,981,981,981,981,976,957,945,935,918,901,890,876,867,852,842,831,816,804,788,779,772,757,742,740,742,732,740,744,733,721,714,709,701,688,674,672,677,683,673,662,649,637,626,626,631,623,611,613,614,607,598,586,584,582,600,617,618,613,605,595,591,600,594,585,580,573,562,555,552,543,549,552,563,591,587,578,569,560,560,556,547,540,551,559,571,585,579,582,578,575,586,594,593,589,594,605,603,609,600,600,591,591,604,625,630,618,623,633,655,685,682,670,660,648,640,640,635,627,615,609,619,624,620,624,658,677,667,666,658,655,662,653,659,663,657,651,645,640,630,630,623,613,605,626,660,664,668,662,653,670,675,664,655,661,659,648,651,646,643,635,623,623,633,625,621,632,639,639,632,631,623,614,612,629,623,617,615,611,609,611,611,605,599,599,604,603,622,615,607,610,610,619,666,693,691,680,669,662,655,650,648,643,638,633,632,629,623,626,635,629,628,625,617,636,645,638,627,635,647,655,656,652,651,646,635,630,631,627,624,621,621,621,619,619,612,602,593,588,586,589,625,629,623,628,628,622,612,610,604,595,602,603,597,598,591,589,593,594,587,587,590,593,594,587,581,580,582,583,574,566,561,562,566,576,568,562,569,574,574,565,555,548,556,566,582,590,579,568,559,555,550,546,544,543,542,541,540,535,530,525,522,520,519,515,512,512,508,501,496,501,513,522,517,509,515,512,525,524,525,534,534,526,524,520,517,513,510,507,503,501,499,497,494,493,491,489,487,483,481,480,475,466,466,474,474,473,469,461,453,448,453,449,443,447,455,450,443,438,438,440,440,441,440,439,435,431,427,423,420,416,415,418,416,416,417,410,407,402,414,427,427,424,419,421,420,429,422,414,408,406,413,413,410,408,405,402,396,391,394,398,403,403,100,98,99,100,98,97,98,97,98,98,98,98,98,97,96,96,95,95,95,94,93,93,92,91,91,92,95,96,98,97,96,99,104,105,106,104,104,102,101,101,99,99,99,97,96,95,94,93
14,13,14,14,13,13,14,13,13,13,14,14,13,13,13,13,13,14,15,14,14,15,14,14,14,14,14,14,14,15,15,15,16,15,16,15,15,15,15,15,15,15,14,14,15,15,14,14,15,14,15,15,14,14,14,14,14,14,14,14,14,14,14,14,14,13,13,14,14,14,13,13,13,14,14,13,14,14,14,14,13,13,14,14,14,15,14,15,14,14,14,13,14,14,14,14,14,14,13,14,14,14,14,13,13,13,14,13,13,13,14,14,14,14,14,13,13,13,13,14,14,14,14,13,13,13,14,14,14,14,14,15,15,15,16,15,15,14,15,15,15,15,15,15,16,14,14,15,15,15,15,15,14,15,14,14,14,14,14,14,14,14,14,15,15,15,16,17,16,17,17,17,18,20,20,21,22,23,23,22,22,21,21,21,21,20,20,20,20,21,23,23,22,22,23,22,23,23,23,23,23,22,23,21,22,22,22,23,23,23,23,22,22,22,22,22,22,22,21,21,21,21,21,21,21,21,22,23,22,22,21,21,21,21,20,21,22,23,27,28,28,28,28,32,38,44,47,48,47,47,47,48,50,52,54,57,61,69,78,81,82,81,80,80,86,95,104,109,108,106,106,106,107,105,105,107,114,128,147,163,180,198,202,201,205,206,204,210,221,227,240,274,315,347,357,357,368,379,387,397,397,393,408,438,475,499,495,495,488,485,492,501,500,490,486,490,489,482,474,477,521,580,637,661,652,652,665,688,713,733,748,757,754,744,732,719,718,727,755,772,772,762,770,775,768,799,842,875,880,877,888,912,933,949,941,947,958,957,954,949,929,916,909,908,897,903,915,914,910,925,942,930,922,910,901,887,895,902,884,881,904,920,917,913,929,930,918,899,884,881,891,893,879,873,865,860,868,870,858,877,895,886,896,909,908,900,884,871,863,852,840,840,844,840,873,933,980,982,982,982,982,983,982,982,982,983,982,983,982,982,982,983,983,982,982,983,983,981,977,983,983,983,983,983,982,982,982,982,982,983,983,983,983,983,982,982,982,982,982,983,983,983,983,983,983,983,983,982,982,983,983,982,982,982,983,982,983,982,983,983,982,981,982,982,978,966,959,982,982,982,978,962,943,937,937,944,943,940,933,920,907,895,887,877,864,852,834,816,801,790,776,760,743,729,713,699,685,674,670,663,654,644,632,621,615,607,599,589,579,572,564,556,548,543,537,529,522,512,501,492,482,475,470,461,460,461,462,462,458,454,445,441,438,432,431,428,419,414,410,410,410,408,403,399,394,389,384,380,375,371,366,361,356,352,347,341,335,329,324,320,317,311,305,301,298,298,297,293,290,287,284,281,277,273,268,262,259,256,253,249,247,244,241,238,236,233,229,225,223,221,217,213,210,208,206,202,199,198,196,194,192,191,189,187,185,183,181,179,176,174,173,170,167,164,160,158,155,155,155,156,154,151,148,145,143,142,142,141,140,140,139,137,135,132,130,127,126,125,126,127,126,124,123,123,122,122,121,120,120,117,114,113,111,110,111,111,110,109,109,108,107,106,105,104,102,101,100,98,96,95,93,91,90,91,91,91,90,90,89,88,86,86,85,85,84,83,82,80,79,78,78,78,78,77,76,75,73,73,73,73,72,72,72,71,68,67,67,68,68,67,66,65,64,63,62,61,60,61,60,59,59,57,57,58,57,56,55,54,54,54,54,55,53,52,51,52,51,51,50,50,49,48,48,48,46,46,45,45,44,44,43,44,45,45,44,44,43,43,43,43,45,45,44,44,44,43,44,43,43,42,41,41,41,41,41,41,41,41,40,40,39,38,38,38,37,36,36,35,35,34,34,34,33,33,32,31,31,31,31,31,31,31,30,30,30,30,29,30,29,29,29,29,28,28,27,28,28,27,27,27,26,27,26,25,26,27,27,26,27,27,28,27,27,26,26,26,26,25,26,26,26,26,25,25,25,24,24,24,23,24,23,23,22,22,22,22,22,22,21,21,22,23,22,21,22,22,22,22,22,22,21,21,21,21,21,21,21,21,20,20,21,20,20,20,20,20,20,20,20,20,19,19,20,19,19,19,19,18,18,18,18,18,18,18,17,17,17,17,17,17,17,17,17,17,17,16,17,18,19,20,21,21,21,21,20,20,21,20,20,21,20,15,15,15,15,15,15,15,15,14,15,15,15,15,15,15,15,15,15,15,15,15,15,15,14,15,14,15,14,14,14,14,14,14,15,14,14,14,14,14,15,14,14,14,13,14,14,13,13,13,13
93,91,92,94,93,93,93,93,95,104,107,107,106,106,110,109,108,107,105,105,106,104,103,102,101,100,99,98,97,97,95,94,94,92,92,91,90,90,89,89,90,92,92,92,90,90,93,97,98,101,100,101,101,100,98,98,97,96,95,95,96,96,95,95,94,93,92,91,90,90,89,88,87,87,86,85,85,86,85,85,84,83,83,81,83,84,83,83,82,82,84,86,88,88,89,88,88,88,87,88,90,97,98,98,97,97,96,95,94,94,93,97,101,100,100,105,113,113,111,110,108,107,106,105,106,108,108,107,106,105,104,103,102,100,100,98,99,99,98,97,96,95,95,94,92,92,91,91,94,93,92,92,91,90,89,88,88,87,86,89,92,93,95,95,94,98,101,100,103,103,103,103,105,104,102,103,103,102,101,101,107,127,131,134,133,131,133,132,130,128,128,133,133,138,137,135,134,132,130,128,127,125,124,123,121,121,118,118,121,122,125,126,124,123,121,122,121,120,120,120,121,120,118,117,118,117,116,114,118,120,122,121,121,122,133,137,136,136,137,135,134,132,130,129,128,132,144,149,147,145,144,145,148,147,147,148,148,153,151,149,153,176,185,188,194,194,191,191,199,213,215,213,209,209,220,220,219,216,223,234,243,242,246,244,240,240,242,243,249,263,270,266,261,259,269,282,297,300,295,296,307,306,305,315,323,320,319,323,330,335,336,335,334,340,347,349,341,335,332,343,356,357,349,343,341,345,342,340,338,338,353,359,354,347,340,335,330,325,325,319,321,319,313,310,305,301,296,291,286,281,276,271,268,268,270,272,271,274,277,283,295,312,338,366,380,394,413,429,446,446,449,456,459,469,492,505,501,504,510,518,526,533,541,561,586,594,601,618,630,644,658,662,666,690,713,713,701,706,704,706,713,716,722,715,719,736,755,750,739,730,727,722,723,724,727,729,738,763,762,746,735,726,719,717,712,714,714,712,725,723,709,695,684,674,664,652,643,633,627,625,624,631,644,644,631,620,610,598,590,579,582,605,607,608,596,584,573,562,551,540,530,520,510,500,491,481,473,468,465,485,495,500,503,500,494,486,478,469,460,452,444,435,429,423,417,410,405,401,394,388,383,378,372,365,359,357,353,348,346,344,343,340,338,335,332,326,321,316,311,312,316,317,315,310,305,306,306,305,308,310,311,311,309,307,306,302,301,304,312,314,311,309,309,309,305,300,296,295,295,298,303,305,307,310,316,317,311,307,307,308,314,320,325,330,335,337,340,338,334,332,328,334,348,359,366,367,371,375,376,375,374,376,374,368,362,364,370,373,381,397,412,422,426,420,418,425,433,438,439,440,445,448,447,448,451,459,468,467,464,464,472,478,484,494,491,483,477,491,506,516,513,510,516,514,517,515,516,517,525,534,540,535,529,545,559,559,556,552,543,543,554,563,569,578,581,576,579,589,592,588,584,580,575,579,585,588,586,586,582,579,577,568,560,561,577,627,657,655,643,636,635,639,639,632,628,632,635,635,629,616,605,609,618,617,617,623,622,610,604,618,630,632,631,633,636,634,636,651,651,638,636,637,629,624,635,640,637,636,633,626,618,616,616,616,617,609,602,605,622,628,640,638,629,624,627,631,627,624,619,616,607,601,599,593,582,576,575,584,592,594,601,605,597,589,588,590,598,599,598,593,589,585,578,568,565,568,570,575,578,579,574,571,570,564,559,553,548,563,561,551,548,553,555,552,542,532,523,525,536,537,537,540,535,529,527,526,525,523,515,506,508,503,501,503,503,501,499,499,497,489,481,479,488,490,484,478,478,477,472,471,469,469,467,466,467,467,462,458,453,451,448,443,444,445,439,431,424,432,438,440,442,444,438,433,429,425,421,420,421,416,410,402,396,400,403,402,399,395,397,399,399,395,391,389,386,381,380,381,384,384,377,377,375,369,364,364,362,360,362,364,358,353,350,347,344,342,339,338,337,335,334,333,332,327,325,322,320,318,316,315,315,313,309,306,304,303,302,300,298,296,293,290,287,283,279,279,276,271,274,288,289,288,290,287,288,290,291,287,287,288,287,283,278,274,272,269,267,264,263,266,266,266,264,261,258,257,253,249,248,244,240,236,233,230,228,227,225,224,221,218,215,212,210,207,204,206,204,201,205,220,231,181,182,185,188,189,187,185,185,186,186,188,192,192,191,190,188,186,185,185,185,188,188,187,185,182,179,180,182,184,186,186,184,183,182,181,182,182,181,180,179,179,181,182,181,182,186,190,191,188,185
