23,23,23,23,23,22,22,22,23,22,23,22,22,23,22,23,22,22,21,22,22,22,22,22,22,23,23,22,23,23,23,23,23,24,24,25,25,24,25,25,24,25,24,25,25,25,25,24,25,24,24,24,24,24,23,23,24,22,22,23,22,23,22,23,23,22,22,23,24,22,23,23,22,22,22,22,22,22,21,21,21,21,22,21,21,21,20,20,22,22,21,21,21,21,22,22,22,22,22,22,22,26,30,31,31,32,32,32,32,32,31,30,31,30,30,31,30,29,29,29,30,32,33,34,37,42,46,49,50,53,58,62,63,65,68,75,79,80,86,94,100,101,101,103,104,105,108,113,116,116,119,119,121,120,118,119,120,122,121,120,119,121,118,117,116,116,114,115,113,111,110,109,108,106,105,104,104,110,115,116,115,117,115,113,119,130,140,141,138,137,136,133,133,132,137,142,148,155,167,175,175,172,173,181,195,217,241,254,253,261,275,281,278,278,274,268,268,267,263,258,255,255,251,250,272,310,348,371,375,378,383,375,379,388,394,397,403,434,469,494,495,499,519,519,512,533,562,587,600,593,586,584,591,598,605,599,607,630,675,715,717,707,709,722,736,740,726,720,723,720,714,708,700,696,719,760,808,829,823,813,812,827,848,860,858,848,839,832,823,808,804,824,849,879,905,898,885,894,918,907,906,901,895,884,873,872,865,852,855,886,893,883,891,934,981,981,981,980,981,981,981,981,981,981,981,982,980,981,980,980,980,981,981,981,981,981,981,982,982,981,980,981,981,980,981,980,981,980,969,977,975,962,959,971,972,959,941,925,926,929,940,932,916,900,889,878,884,903,909,904,911,933,947,941,953,942,922,913,898,892,888,881,876,861,859,855,843,833,818,804,792,778,772,769,766,769,799,842,871,860,856,887,909,922,922,908,891,872,860,877,916,925,920,939,949,955,958,955,946,935,925,910,894,880,882,886,889,878,883,885,867,853,837,829,846,869,882,875,859,846,855,874,871,855,840,836,840,835,821,803,789,784,775,776,770,769,763,748,733,719,706,698,687,677,665,654,644,652,664,660,671,681,681,683,679,667,662,653,642,643,642,636,623,612,605,594,582,576,570,570,573,572,570,623,709,762,762,783,801,802,799,793,797,806,801,796,788,773,762,748,732,728,723,712,708,711,704,696,686,698,710,725,726,712,712,733,735,722,711,709,699,697,694,691,694,693,687,675,664,652,652,649,641,642,638,631,620,615,618,611,604,602,595,590,587,580,578,577,572,563,563,588,601,595,606,619,620,609,601,590,594,600,601,593,597,612,623,632,628,622,638,655,660,664,663,655,644,634,626,616,604,593,583,579,572,563,555,575,590,579,591,602,612,612,610,619,623,619,625,622,618,616,612,602,602,597,589,577,567,559,556,551,545,556,585,604,603,623,634,629,623,618,616,611,601,592,585,576,566,571,615,672,698,707,738,756,764,765,759,750,742,733,717,708,701,686,672,668,665,658,651,653,654,647,634,634,654,668,667,676,689,696,701,697,689,676,664,658,692,736,767,765,787,804,812,815,812,804,794,784,771,757,748,768,783,780,796,800,794,787,776,763,765,772,782,768,760,755,753,752,742,728,713,705,707,707,705,703,741,785,798,806,821,833,837,839,830,819,804,787,770,755,741,725,712,716,731,735,730,745,747,745,742,732,748,774,779,777,773,764,757,746,750,754,756,753,745,731,717,704,690,677,664,652,640,626,616,609,600,605,627,678,730,738,770,794,805,807,806,803,792,785,777,764,756,740,725,718,718,709,699,686,672,661,649,644,663,696,704,698,711,727,727,713,698,687,696,700,691,698,693,685,679,672,677,678,671,665,654,643,632,643,674,714,726,722,740,757,761,756,748,739,728,717,704,692,683,676,665,653,640,626,616,606,594,596,624,700,757,777,788,806,822,843,853,852,848,840,830,815,798,781,768,758,747,734,720,704,691,679,667,653,643,636,634,629,618,608,597,586,579,572,564,555,546,538,530,522,525,540,559,563,559,566,575,574,569,558,560,571,575,568,565,555,548,542,543,548,549,547,541,532,522,512,503,494,485,477,467,459,451,443,435,427,419,411,421,451,474,475,492,504,507,509,505,500,494,484,475,467,460,455,453,449,440,430,422,413,404,396,390,383,377,372,364,356,350,343,338,333,326,320,314,308,302,298,292,286,282,280,279,274,269,264,264,259,255,250,248,246,243,239,235,233,232,227,222,218,217,215,214,219,223,221,218,216,214,210,206,39,38
171,170,168,166,169,169,168,168,167,167,165,164,162,160,158,158,163,165,167,175,179,184,185,184,182,180,177,176,175,176,175,174,171,171,169,168,167,167,170,171,172,174,176,175,175,175,177,176,174,172,170,168,167,166,166,167,167,166,163,162,160,159,158,157,154,153,151,149,148,149,149,150,152,159,163,165,163,163,164,163,160,160,161,162,161,159,157,155,155,154,155,155,155,154,156,156,155,155,154,151,150,149,149,150,150,148,148,147,148,146,145,144,142,143,146,145,146,144,143,142,140,140,140,141,145,145,144,144,144,147,145,145,149,148,149,152,152,157,165,170,173,173,172,172,170,168,166,165,163,164,164,163,170,171,175,174,175,173,172,170,168,167,167,167,171,170,170,172,171,171,171,175,175,174,173,179,183,182,183,185,188,193,193,193,197,198,199,200,200,200,199,198,198,202,201,203,202,201,200,198,199,198,198,197,195,197,196,197,199,202,206,205,203,201,202,206,215,226,226,224,223,221,218,217,217,214,211,213,212,214,219,223,223,221,220,224,229,234,232,231,229,230,227,225,221,222,233,246,246,247,246,250,257,255,256,260,258,260,267,278,288,289,287,289,295,293,287,291,316,340,343,342,350,366,368,372,381,397,398,406,406,405,398,405,414,410,408,402,402,415,434,433,434,430,431,426,421,415,414,418,420,428,445,446,451,451,449,456,462,458,451,444,445,447,473,501,498,509,505,496,488,483,480,485,486,488,493,492,485,480,479,471,466,462,459,462,470,490,507,508,507,507,500,493,486,478,478,486,491,501,517,519,516,519,516,509,505,504,503,497,500,504,515,543,557,565,579,575,579,602,627,623,619,617,607,607,610,604,595,590,580,569,563,558,549,539,533,535,541,552,550,549,542,533,526,527,546,571,572,577,583,602,601,596,592,591,583,583,609,642,642,634,642,645,656,647,653,670,664,666,665,655,644,639,645,657,652,644,635,624,616,607,598,588,580,575,570,563,552,543,537,529,523,515,507,504,505,507,504,496,491,486,478,474,507,572,591,606,616,616,608,598,587,576,574,579,573,565,561,561,556,548,540,533,524,513,504,497,496,511,513,509,504,499,491,481,474,466,463,464,460,452,446,453,460,455,451,444,446,451,455,453,446,439,437,433,427,422,417,421,430,441,448,446,447,444,436,439,444,437,435,429,422,415,414,416,414,412,413,409,402,395,388,383,380,379,377,376,376,391,400,395,392,393,387,380,373,370,366,363,366,364,363,378,394,393,398,399,396,390,390,392,387,381,375,377,378,372,368,365,359,354,347,343,341,338,339,343,357,377,377,376,372,371,368,363,361,357,352,347,342,337,338,345,351,358,365,361,363,358,355,350,346,347,358,382,394,392,397,398,399,393,387,383,380,377,379,386,387,382,377,370,364,360,364,370,376,381,378,380,375,382,389,385,379,373,368,363,360,374,382,384,397,399,402,407,404,397,390,384,379,373,368,363,358,359,385,401,401,397,394,393,390,384,378,372,369,365,360,355,355,358,367,370,370,368,379,392,393,387,381,378,373,366,361,355,349,343,338,333,331,340,354,359,352,353,354,351,348,346,344,337,336,348,360,358,360,357,356,352,347,340,337,339,347,359,368,368,373,369,368,374,373,367,362,367,366,364,358,355,350,345,341,337,339,339,335,334,344,350,350,354,351,352,355,357,354,358,361,359,356,353,350,348,351,359,362,358,356,351,349,351,348,346,343,340,340,338,335,338,349,369,385,383,390,389,384,379,373,366,361,356,354,353,356,354,349,344,337,332,327,323,321,320,319,320,325,330,336,351,362,361,368,372,368,362,357,365,374,369,375,374,373,369,366,363,358,355,365,373,369,370,372,368,366,362,360,357,352,346,341,338,337,334,330,327,324,323,320,318,314,309,307,308,311,318,331,357,373,373,371,370,372,372,368,361,356,351,347,343,338,333,331,331,331,326,320,316,313,311,310,310,308,310,312,310,307,306,302,295,293,290,288,287,287,287,287,283,290,295,292,287,285,282,283,287,289,285,287,291,294,290,290,287,283,279,275,272,270,267,266,266,269,271,271,269,267,263,261,259,258,258,259,259,258,256,254,263,274,275,272,268,263,262,261,262,261,260,258,260,260,259,257,255,252,252,252,254,257,258,258,260,261,261,261,258,254,252,253,253,254,253,254,257,256,257,257,255,254,251,253,260,264,267,270,271,272,278,285,293,294,291,289,287,286,284,281,280,275,271,273,277,283,292,301,303,304,304,311,103,103
21,22,21,22,22,22,22,21,21,21,21,21,21,22,22,22,21,21,21,21,21,20,21,21,21,21,20,21,21,21,20,21,21,20,20,20,20,20,20,20,20,20,20,20,20,20,20,20,20,21,20,20,19,20,20,21,20,20,20,20,21,22,21,21,20,21,20,21,21,21,21,21,20,20,20,20,21,20,19,20,20,20,20,20,20,21,20,20,20,20,20,19,19,19,20,20,19,20,20,20,20,20,19,19,19,19,20,20,20,20,20,20,20,21,20,20,20,20,20,19,20,20,21,21,22,22,21,21,22,22,21,22,22,22,23,23,23,22,22,22,22,22,22,22,21,21,21,21,21,21,21,22,21,22,21,21,21,20,21,21,22,24,25,25,29,30,30,30,32,34,34,34,36,41,47,51,59,68,73,74,73,74,73,72,75,78,85,95,106,116,125,137,145,146,143,147,160,169,175,186,191,190,197,198,216,241,262,269,275,291,317,339,356,366,364,376,390,401,407,408,400,399,414,446,502,561,600,609,603,624,639,630,630,647,688,782,862,889,876,876,877,872,857,842,826,829,822,841,853,860,857,847,831,822,827,843,859,854,836,821,805,789,787,809,866,904,936,934,946,947,954,958,961,967,965,954,950,964,977,982,982,981,981,981,981,981,981,980,981,981,982,982,981,981,981,982,981,981,981,981,981,981,981,981,981,981,981,982,981,981,980,980,981,981,981,982,982,981,981,981,981,980,981,981,981,971,978,974,978,968,981,981,981,981,967,951,933,917,925,940,930,981,980,981,981,981,980,981,981,981,980,980,981,982,981,981,981,981,981,980,980,981,981,981,981,981,981,981,981,981,981,981,980,981,980,981,982,982,981,981,981,981,981,981,980,981,980,981,980,981,980,980,981,980,981,981,981,981,981,981,980,981,980,981,981,981,981,977,958,946,938,928,916,907,895,880,865,849,835,822,809,801,789,775,760,745,733,720,707,694,681,671,664,659,654,644,634,625,619,612,601,594,588,581,577,569,573,578,571,567,571,572,568,559,552,547,537,528,521,518,513,503,493,483,473,463,454,445,437,428,421,415,410,405,399,391,385,378,373,367,361,354,348,340,334,329,326,323,319,313,310,308,305,301,295,292,287,282,277,272,269,266,263,261,256,250,246,244,242,238,235,234,232,228,226,224,221,217,214,211,208,204,201,198,195,191,188,185,181,179,175,173,168,166,163,161,159,156,154,152,152,156,155,153,149,147,144,142,140,138,136,133,130,128,127,125,123,121,118,117,115,114,112,111,109,107,105,104,102,102,100,99,97,95,94,92,91,89,88,87,86,85,84,84,82,81,79,78,77,77,76,78,81,79,78,77,76,75,73,72,71,70,69,68,67,66,66,65,64,63,62,61,60,59,58,57,56,56,54,54,53,53,52,51,50,51,51,50,49,49,48,47,47,47,45,45,45,44,44,44,43,42,43,41,41,41,41,41,41,39,39,39,38,39,38,38,38,37,37,38,37,36,37,36,35,35,35,34,34,35,34,33,33,33,33,35,34,34,34,35,36,35,35,35,34,34,35,33,33,33,33,31,31,31,31,31,31,30,31,30,31,30,30,29,28,29,29,29,28,29,28,28,28,27,28,27,27,26,26,27,27,27,27,26,27,26,26,26,27,25,25,25,25,26,25,25,26,27,27,26,26,26,26,25,25,25,26,27,27,27,27,26,26,26,26,26,26,25,25,26,26,25,25,25,25,25,26,24,25,24,24,23,24,24,24,24,24,23,24,24,24,24,23,23,23,23,24,24,24,23,24,24,23,24,24,24,24,23,23,23,23,23,23,23,22,22,22,23,22,22,22,22,22,22,22,22,22,22,21,22,22,21,21,21,21,21,22,23,22,23,22,23,22,22,22,22,22,21,21,22,23,22,22,22,22,22,23,22,22,21,21,21,22,22,22,22,22,22,22,22,22,22,22,22,22,22,22,22,23,22,22,22,22,22,21,21,21,21,21,21,21,21,21,21,21,21,21,21,22,21,20,20,21,21,21,21,21,21,20,21,21,20,20,20,21,20,20,20,20,20,20,20,20,21,20,20,20,19,20,20,20,20,20,20,19,18,19,20,19,19,19,18,19,19,19,19,19,19,18,19,20,19,19,18,19,18,18,19,19,18,19,18,19,19,18,18,18,17,18,18,19,19,19,18,18,19,19,19,19,19,18,19,19,18,18,19,19,18,19,19,18,19,18,18,18,18,18,17,18,18,19,18,19,18,18,23,23,25,24,24,24
299,299,299,300,302,300,298,295,296,298,298,299,299,298,296,297,298,299,299,298,296,295,297,300,305,305,301,295,293,293,295,297,296,293,292,292,293,293,294,294,293,292,292,293,294,295,294,292,288,286,282,285,293,295,296,297,298,300,300,300,300,300,297,294,293,292,292,291,292,293,296,298,297,292,288,287,287,288,287,287,285,284,284,284,286,284,283,282,280,279,279,279,278,277,275,274,275,276,276,272,268,265,262,258,256,260,265,269,274,279,282,285,283,282,280,282,282,282,282,279,275,272,273,279,284,283,281,279,274,270,267,269,274,275,275,276,277,278,279,279,276,271,267,265,263,260,257,253,253,257,262,265,265,264,262,263,261,259,260,262,263,265,276,282,283,280,278,276,272,268,265,270,275,277,274,272,273,276,275,272,272,272,272,273,276,275,273,272,274,272,274,285,297,310,311,307,304,305,317,316,311,307,303,300,303,305,302,304,312,318,317,312,308,305,302,301,306,321,335,337,334,330,330,329,323,324,333,338,334,331,327,328,329,326,321,317,316,321,331,339,340,353,370,371,372,368,364,359,353,348,342,339,337,332,336,359,379,381,379,375,372,368,364,369,393,441,492,513,512,513,506,512,512,506,496,489,480,477,487,502,522,548,556,556,570,563,555,548,542,538,536,543,549,566,591,587,591,589,588,588,579,571,561,556,565,580,616,644,639,649,649,640,629,623,617,607,598,589,580,576,591,617,618,617,608,600,595,593,583,573,566,567,566,561,549,545,542,542,544,551,576,604,606,615,614,613,615,611,601,592,585,586,600,610,604,594,583,573,565,555,550,543,537,531,528,525,521,516,511,513,510,503,495,491,488,485,480,479,476,471,466,462,460,460,457,453,448,442,436,433,435,437,436,432,429,427,427,425,421,416,415,412,408,404,400,393,388,389,394,401,402,398,391,392,392,391,389,384,380,373,366,360,355,353,353,353,358,360,363,360,356,354,352,353,358,362,361,356,352,350,348,347,351,356,356,355,355,350,345,340,336,330,328,333,338,337,331,326,323,323,321,316,315,319,327,333,332,328,326,326,327,331,329,327,328,324,322,318,315,317,319,323,336,345,345,343,341,343,351,356,352,353,352,351,353,355,356,365,364,371,373,373,369,373,388,405,426,436,429,433,459,465,457,454,461,456,453,455,458,455,451,449,451,458,459,454,454,447,439,432,431,426,422,424,437,455,476,480,480,474,466,466,477,488,487,490,495,488,482,478,473,468,464,464,461,463,458,458,460,455,452,453,451,454,469,475,472,463,456,453,449,446,442,440,433,427,433,437,434,444,442,445,449,456,459,459,454,455,453,450,446,444,438,432,429,428,430,424,424,417,411,406,401,402,406,413,411,405,402,397,400,398,405,408,406,400,395,393,390,391,387,381,374,379,393,402,400,398,392,385,383,379,375,370,363,357,352,350,346,340,342,347,345,347,345,340,346,346,350,349,348,344,355,368,367,376,373,372,370,371,371,367,362,357,352,353,351,354,361,359,355,350,347,342,337,331,326,320,315,311,311,308,312,321,325,326,324,325,331,333,328,335,339,339,335,330,325,326,322,320,317,316,313,314,312,310,319,324,321,333,347,346,343,340,339,343,346,349,347,345,345,343,340,344,346,343,343,346,346,342,337,332,338,349,355,359,355,351,346,342,341,337,333,331,329,324,321,317,317,315,311,306,306,305,302,297,296,299,301,299,293,289,284,282,280,277,273,273,275,277,277,275,272,274,274,273,279,283,283,282,280,277,273,270,267,265,267,278,280,278,274,272,271,268,264,263,261,261,260,260,262,261,261,261,258,256,256,254,251,248,251,260,264,263,261,262,261,258,256,253,249,246,244,242,246,249,250,248,247,247,244,243,243,240,237,235,233,234,232,232,233,230,229,234,240,244,246,249,250,248,244,246,244,243,247,250,253,254,251,248,243,241,237,235,233,235,233,234,234,233,238,241,241,239,237,235,235,235,233,233,233,232,230,232,232,233,237,241,242,238,236,234,234,231,230,227,223,222,218,217,217,217,216,214,214,216,215,216,219,221,222,220,219,215,213,210,209,208,209,208,206,206,203,204,205,206,204,203,201,199,197,194,192,188,188,190,192,192,191,192,192,190,189,187,187,190,192,192,194,193,192,189,187,188,190,191,190,189,188,186,184,183,182,184,189,190,193,199,208,216,225,227,233,233,237,240,241,238,234,232,230,231,230,227,224,225,233,235,235,235,236,239,238,235,231,203,201,203,206,206,205
24,24,23,24,24,24,23,24,23,23,23,23,23,24,25,24,24,24,23,24,24,23,24,23,24,23,23,23,23,23,25,23,23,24,23,23,23,23,22,23,23,23,24,23,23,23,23,23,22,23,22,23,23,22,22,22,22,22,22,22,23,23,22,22,22,22,22,22,22,22,22,22,22,23,22,22,23,22,23,24,24,25,25,25,24,25,25,25,25,24,26,25,24,25,24,24,25,25,25,24,25,25,24,24,24,24,24,24,24,25,25,24,24,24,24,24,24,23,24,24,24,24,23,23,22,23,23,24,24,25,24,24,25,24,24,25,23,24,23,24,24,24,23,23,23,23,23,23,23,23,22,23,23,23,24,23,22,22,22,22,22,21,21,22,21,20,21,21,21,21,22,21,20,21,21,20,20,20,20,21,22,22,23,23,23,23,23,22,25,31,37,40,41,43,46,46,46,46,45,45,43,44,44,49,59,70,76,78,89,92,92,96,113,151,185,205,213,214,225,247,274,315,371,426,479,510,525,531,543,564,576,584,580,568,559,552,545,549,571,605,636,663,693,708,703,694,714,747,758,762,768,767,768,793,809,817,830,828,858,876,900,913,911,896,878,869,873,906,977,981,981,980,981,980,981,981,982,980,981,981,981,981,981,980,980,981,980,980,980,981,980,980,981,981,981,980,981,981,981,981,981,981,981,980,980,981,981,981,981,981,980,980,980,979,980,980,980,980,980,981,981,981,981,981,981,980,981,980,980,980,981,981,981,980,981,980,980,980,980,981,981,980,981,981,981,980,980,980,980,980,980,981,981,981,981,980,980,981,981,980,980,980,980,980,980,981,981,981,981,981,981,981,980,979,980,980,980,980,981,980,981,981,980,981,980,980,980,980,979,981,980,981,980,980,980,980,981,980,980,981,980,981,981,980,981,980,980,980,980,976,959,942,927,913,901,889,879,865,850,834,817,801,785,771,758,745,736,726,712,698,687,678,669,658,645,633,621,609,603,605,610,611,608,599,587,576,565,558,550,542,538,528,517,506,497,488,482,477,469,460,456,448,439,431,429,429,429,428,422,416,408,399,392,389,385,381,373,366,360,355,352,347,340,334,328,320,315,308,301,297,295,294,291,287,281,277,271,267,264,258,253,249,244,241,238,235,231,226,223,219,215,212,208,204,201,199,198,198,195,194,194,194,193,191,188,185,181,178,175,172,170,169,166,164,160,157,153,151,148,146,144,144,143,141,139,140,137,134,134,134,132,130,127,126,123,121,120,118,116,114,112,110,108,106,105,102,100,99,98,96,94,93,92,91,89,88,87,86,84,83,82,81,80,79,78,76,76,74,74,72,71,70,69,68,68,66,66,65,64,64,62,62,61,60,59,58,58,57,56,56,55,55,53,54,52,52,51,50,50,49,50,50,49,48,48,47,48,48,46,46,45,44,44,45,44,44,43,42,42,42,41,41,39,39,39,39,39,39,39,39,38,38,37,37,37,36,37,36,35,35,34,34,33,34,34,33,33,33,32,32,31,32,31,31,31,31,31,30,30,31,30,30,30,30,29,29,29,30,31,30,30,29,30,29,29,29,28,29,27,29,29,28,27,28,27,27,26,26,26,26,27,26,27,27,26,26,27,27,27,27,26,26,26,26,26,25,27,26,25,25,25,26,25,25,24,25,25,25,25,25,25,25,24,23,23,24,24,24,23,23,24,23,23,23,23,22,22,22,22,22,22,22,22,22,22,22,23,23,23,23,23,23,23,23,23,22,22,22,22,22,22,22,22,21,21,21,21,21,21,21,21,21,21,23,22,22,22,23,22,22,22,22,22,21,22,21,23,23,23,23,23,23,23,23,23,22,22,22,22,22,23,22,22,21,21,22,22,21,22,21,21,21,21,21,21,21,21,21,21,21,21,20,21,21,20,20,20,21,20,19,20,20,20,20,20,20,20,22,23,23,23,24,24,24,23,24,23,23,22,23,22,22,22,22,23,23,22,22,23,23,23,23,23,22,22,22,24,23,23,22,22,22,22,22,22,21,21,21,21,21,22,22,21,21,21,21,21,21,20,20,21,21,20,21,20,20,20,20,20,20,20,20,20,21,21,19,20,20,20,20,20,19,21,20,20,20,20,20,20,21,20,20,19,20,19,20,20,20,20,20,19,19,19,20,19,19,19,18,19,19,19,19,19,19,19,19,21,20,22,22,23,23,23,24,24,23,23,23,23,23,22,22,22,21,22,22,23,22,22,22,22,22,22,23,22,22,22,22,22,22,22
204,205,206,207,210,212,211,210,209,210,210,208,205,202,201,200,200,203,204,203,201,200,201,204,205,207,209,205,203,203,206,207,206,206,205,205,206,207,206,206,204,203,201,201,202,204,204,204,203,202,203,201,200,199,198,197,196,198,199,199,200,202,202,204,205,204,201,200,199,198,201,205,205,205,203,201,199,199,201,201,203,204,203,202,201,200,200,200,201,203,204,204,203,202,203,206,209,211,212,212,211,209,206,203,200,197,196,198,198,198,199,200,201,201,203,204,206,206,205,203,202,201,200,200,202,202,203,204,205,205,206,205,203,202,202,202,203,205,205,203,203,204,205,204,202,200,197,196,193,192,194,197,199,199,200,203,206,208,208,207,204,201,199,201,202,206,208,208,208,208,210,208,206,205,204,203,204,205,205,203,200,199,202,208,211,211,212,213,211,209,211,214,215,213,210,207,206,206,206,211,211,207,207,210,214,218,221,225,229,234,238,236,235,236,243,244,245,249,254,263,268,274,279,277,276,280,288,297,298,301,300,309,311,319,328,326,322,336,355,357,358,357,371,406,413,414,407,403,405,425,439,435,432,426,425,440,454,468,474,467,467,490,515,511,514,515,507,499,503,521,534,535,541,543,538,542,534,528,532,532,525,517,511,503,497,490,481,475,474,473,480,495,497,489,485,486,479,473,465,460,455,447,445,452,454,448,441,437,432,425,420,416,410,405,400,394,387,381,377,382,391,394,415,439,443,450,448,443,436,428,420,413,406,400,393,387,381,374,370,375,373,367,362,357,351,349,346,344,340,336,333,329,328,323,322,324,321,318,317,317,314,311,305,302,301,307,313,311,308,307,322,344,363,363,371,370,365,360,355,352,347,342,336,333,329,326,322,319,318,316,315,311,306,303,299,298,299,301,299,295,291,286,282,279,279,284,287,287,284,285,286,286,283,281,281,285,286,284,280,279,277,285,304,313,311,313,310,307,313,322,331,330,330,329,326,323,333,332,330,331,332,340,345,354,356,362,372,371,368,362,357,354,359,366,369,364,371,391,407,415,411,411,405,402,399,402,419,434,444,437,432,431,431,430,429,423,420,419,412,414,417,416,418,433,451,455,460,466,461,456,460,462,462,462,459,460,461,457,448,441,440,432,429,424,425,436,435,430,424,424,424,426,424,436,458,483,495,499,502,497,493,487,477,473,479,486,482,482,474,472,469,475,480,476,473,475,474,471,473,488,497,493,489,484,479,472,469,474,471,465,458,457,454,448,452,454,459,454,448,446,458,465,458,453,448,441,437,431,430,429,426,429,425,423,420,417,412,409,404,400,394,390,392,395,396,394,391,390,390,386,382,382,382,379,379,377,379,378,374,371,369,367,366,362,356,351,347,345,342,338,336,330,324,320,315,316,320,322,319,315,314,311,313,318,316,318,325,329,328,325,321,318,318,315,311,306,304,301,299,295,291,289,290,288,284,283,281,278,273,272,270,267,265,262,264,267,269,269,267,264,263,264,260,262,269,266,261,260,259,257,254,252,249,247,247,246,246,244,240,237,234,231,234,233,238,242,247,250,248,245,244,245,244,244,246,251,256,258,259,256,252,250,247,247,243,239,237,235,233,236,242,241,238,238,237,236,233,229,228,226,223,222,221,220,218,216,214,215,215,213,215,215,217,219,221,220,221,227,228,224,224,224,221,218,215,213,212,210,212,214,212,214,220,225,230,236,241,242,240,237,236,233,230,229,229,227,228,233,233,237,243,247,246,243,241,239,237,235,233,232,229,225,223,221,219,217,214,211,208,205,204,206,206,204,204,202,202,207,206,207,205,204,201,198,197,197,199,196,196,194,197,199,197,195,194,192,193,198,200,198,197,196,196,195,194,201,207,206,210,216,220,221,219,217,214,213,215,215,212,209,208,208,210,212,210,207,205,203,203,203,202,200,197,196,194,193,191,188,187,186,185,186,188,190,191,190,188,185,183,181,178,178,176,178,179,178,175,173,171,171,173,172,170,173,175,174,175,175,175,179,183,185,185,183,183,181,181,183,181,179,179,177,175,175,174,172,172,170,170,170,173,175,176,176,177,179,181,179,178,175,173,170,169,168,167,166,163,161,160,158,158,159,160,159,159,157,156,154,152,151,150,149,148,150,152,152,150,148,147,148,148,146,148,150,152,154,155,155,153,152,149,148,146,145,144,143,142,140,140,140,140,138,139,141,143,142,141,143,142,142,140,139,138,138,137,136,135,135,135,135,134,133,131,193,197,204,203,200,199,199,201
22,22,22,22,22,21,21,21,21,21,21,21,21,21,21,21,21,20,21,21,20,20,21,20,20,20,20,20,21,20,20,20,19,20,20,20,20,21,21,21,21,21,21,21,22,21,21,22,21,21,20,20,21,21,21,20,20,21,20,21,20,20,20,20,20,20,21,19,20,22,23,22,22,23,23,22,22,22,22,23,23,24,23,23,24,23,24,23,22,22,22,23,23,24,24,23,23,22,23,23,23,22,23,22,23,23,23,23,23,23,22,23,22,23,22,22,22,22,22,23,23,23,23,23,23,23,24,24,24,24,24,25,25,25,25,25,25,24,24,24,25,24,24,25,23,24,24,25,24,24,25,24,24,24,24,25,24,24,24,24,24,24,24,24,24,23,24,24,23,23,23,23,23,23,23,23,23,23,23,23,23,22,23,25,30,36,39,40,39,39,41,44,48,50,50,52,55,57,57,57,58,59,59,59,60,62,62,62,62,61,61,61,60,60,58,57,57,56,56,56,57,55,55,54,53,54,54,55,54,53,54,53,52,52,51,52,53,53,54,56,59,60,58,60,59,58,58,60,60,60,60,60,59,59,58,58,58,57,57,55,55,56,55,56,57,60,67,74,79,79,78,76,80,92,102,114,125,131,132,139,148,159,167,169,167,169,170,178,199,226,256,283,318,343,352,348,343,338,348,422,525,614,653,654,704,758,796,802,812,868,942,981,981,980,981,980,981,981,981,980,981,980,980,980,980,979,980,981,980,980,981,980,981,980,971,957,944,932,917,903,886,912,981,981,981,980,979,981,980,981,980,980,980,981,981,980,980,981,980,980,981,981,980,980,980,980,980,981,980,981,981,981,981,979,972,978,973,962,980,981,981,980,981,981,981,980,980,981,973,959,942,933,933,939,936,926,947,971,973,953,937,942,934,922,930,965,979,979,973,966,959,954,945,934,922,908,893,881,872,861,848,829,811,795,782,771,757,743,732,722,712,702,692,680,668,658,648,639,629,617,606,595,584,573,562,551,540,531,530,530,526,521,513,506,501,497,496,496,495,487,477,467,462,458,452,447,439,432,426,418,418,413,407,403,401,395,393,389,382,380,376,373,373,370,366,373,369,369,366,365,361,354,348,341,336,331,325,319,313,307,301,295,290,286,282,278,272,268,266,263,260,258,257,252,253,252,249,247,250,247,244,242,237,233,229,226,223,222,219,215,211,207,203,199,195,192,188,187,183,180,176,174,173,170,172,174,174,175,178,177,177,175,173,170,167,164,161,159,158,155,154,150,147,144,142,140,137,135,131,130,127,126,124,121,120,118,116,114,112,110,109,106,104,102,101,98,97,95,95,93,92,90,88,87,86,86,87,85,84,82,82,81,80,79,77,76,75,73,73,72,70,70,68,68,67,66,67,66,66,64,64,62,62,61,60,59,59,57,58,56,55,55,54,53,53,53,52,51,51,50,49,50,49,48,48,48,46,46,47,48,48,47,47,47,47,46,46,46,45,44,44,44,43,43,43,42,43,42,42,41,41,40,40,40,39,38,38,38,38,37,37,37,37,36,37,35,36,35,36,35,34,34,34,33,33,33,34,35,34,35,34,34,33,33,33,32,32,32,32,31,32,32,32,31,31,30,31,30,30,30,30,30,30,30,31,31,30,29,30,29,29,28,29,28,29,29,30,30,31,30,30,30,30,29,30,30,29,29,29,29,29,29,29,28,28,28,28,27,27,26,27,27,27,27,26,27,26,26,26,25,26,26,25,25,26,26,26,26,26,25,25,25,25,25,25,25,24,25,25,25,25,25,25,25,25,25,25,24,25,24,25,25,25,24,24,25,25,24,25,24,24,24,24,24,24,24,24,24,24,24,23,24,23,23,24,24,24,24,23,24,24,24,23,24,23,23,23,23,23,23,23,23,23,23,24,23,23,24,23,23,23,23,24,23,24,25,24,24,24,24,24,23,24,25,23,24,24,24,24,24,24,26,24,24,24,25,25,24,24,24,24,25,24,24,23,24,23,24,24,23,24,24,23,24,24,24,23,24,23,24,24,23,24,23,24,24,25,23,24,24,24,24,24,24,24,23,24,23,24,24,24,24,24,24,24,24,24,23,25,24,25,24,23,23,24,24,25,24,24,23,24,23,23,24,24,24,25,24,24,24,24,24,23,23,24,23,23,24,24,24,24,25,23,24,24,24,24,24,24,24,24,24,24,25,25,25,25,24,25,24,25,24,24,24,24,24,23,23,24,24,24,19,20,20,20,20,20,20,20,20,20
199,200,205,205,203,206,208,208,207,207,205,204,205,204,202,200,199,196,193,192,192,192,192,189,187,186,186,184,182,179,179,182,182,182,183,181,181,181,183,183,182,182,181,179,181,185,188,187,188,186,185,182,181,179,177,176,175,173,171,169,170,169,171,171,176,184,185,185,184,189,190,188,187,190,194,196,193,195,194,193,196,199,198,197,196,197,196,195,194,192,194,195,196,197,198,199,200,201,203,202,204,205,209,207,205,204,203,199,196,193,192,193,198,204,202,201,202,201,200,197,196,196,193,192,191,188,187,190,192,192,199,200,206,211,209,207,206,206,208,210,209,207,206,203,202,203,206,206,206,208,211,211,209,207,209,207,206,204,203,203,204,206,205,207,210,209,214,214,215,217,224,225,222,221,221,218,216,213,210,208,206,205,206,205,208,206,207,205,206,210,218,222,226,229,234,236,233,234,233,231,229,228,233,239,244,242,241,240,236,235,235,232,229,228,226,229,235,242,245,245,249,252,249,245,243,241,239,236,232,229,228,228,228,225,225,223,221,219,217,215,214,212,211,211,209,209,213,221,228,230,226,225,225,231,233,230,230,228,224,225,227,225,222,223,224,221,219,216,215,215,214,212,212,211,214,216,215,215,222,221,222,221,217,215,212,210,209,209,209,211,213,210,209,210,212,211,209,208,214,226,231,231,230,230,231,229,228,234,239,240,239,237,237,239,239,236,237,242,245,242,241,254,267,272,268,269,277,284,284,295,305,312,324,324,319,316,314,312,307,303,301,297,295,292,289,292,297,321,355,359,366,374,373,375,371,372,381,383,379,373,371,372,372,371,372,370,368,367,367,367,364,360,354,349,346,344,345,342,337,339,355,360,359,359,365,365,359,356,353,354,351,350,347,352,355,350,345,348,344,343,340,338,342,350,353,349,353,355,352,357,357,354,354,354,353,349,346,341,335,331,328,326,322,317,311,309,308,305,304,302,298,292,288,284,281,276,272,270,265,263,262,260,256,253,251,251,250,246,244,241,241,241,239,237,239,236,239,237,242,250,249,251,253,253,254,254,256,256,254,250,253,260,265,264,266,276,281,283,292,290,299,299,316,335,351,358,359,366,362,357,353,353,348,345,341,340,337,335,341,343,345,354,357,373,401,437,448,469,493,503,500,506,502,494,491,488,491,492,486,492,514,551,566,585,630,659,654,662,677,685,683,679,688,681,687,693,688,681,685,703,716,713,722,713,705,692,679,667,661,662,664,658,648,640,636,630,623,619,614,609,598,588,586,599,608,606,627,636,627,618,611,606,622,631,625,633,641,642,638,627,615,605,594,584,575,565,555,546,538,535,528,520,511,506,499,494,490,486,480,473,466,460,454,449,443,437,431,423,416,409,405,409,405,399,401,397,401,409,410,404,398,391,386,382,376,370,364,359,354,352,348,347,347,348,345,341,337,331,327,322,317,312,308,304,300,296,293,291,293,290,287,282,277,274,274,270,267,263,260,263,262,267,271,271,278,276,275,271,267,262,259,255,254,255,254,251,246,242,239,236,235,234,233,230,229,229,226,229,225,223,220,217,216,215,217,220,221,219,220,220,217,218,216,213,211,209,210,210,210,207,205,203,203,201,199,197,194,194,193,191,189,187,183,181,179,177,177,177,178,182,191,195,196,199,201,199,196,195,192,190,188,186,185,183,181,180,179,179,177,175,173,170,168,169,170,169,167,166,166,169,174,176,176,173,171,169,170,169,167,165,163,161,159,158,158,157,156,156,156,159,159,158,157,156,159,162,165,163,165,166,167,167,166,165,166,166,163,161,160,159,157,157,154,152,151,149,149,148,148,149,151,151,151,151,150,148,146,144,143,145,145,145,143,142,142,143,142,144,146,145,144,144,145,147,150,150,154,154,157,162,168,171,170,170,167,165,166,166,166,166,166,165,163,163,165,167,165,165,163,165,169,168,166,164,162,160,158,157,156,154,152,150,149,151,154,156,156,156,154,154,153,153,153,151,149,148,147,146,147,147,146,146,146,147,151,153,153,151,150,148,147,145,144,146,148,149,148,146,144,143,141,141,143,143,144,142,141,140,139,138,137,138,136,134,133,134,135,137,138,139,139,138,139,139,141,144,145,145,143,144,145,146,147,146,146,144,143,148,153,156,154,155,156,155,154,155,156,159,158,156,154,152,151,149,147,145,147,148,149,148,146,145,145,146,147,146,145,144,143,145,148,150,152,153,152,151,150,151,151,153,155,120,120,118,119,118,118,118,116,116,116
20,20,21,21,21,21,20,21,21,22,21,21,21,21,21,20,21,20,21,20,20,21,21,22,21,21,21,21,20,21,20,20,20,21,20,20,21,21,22,21,21,22,21,21,21,20,22,21,21,22,22,21,21,21,21,21,20,21,21,22,21,21,22,21,21,21,20,21,21,21,21,21,21,21,21,21,21,22,21,21,21,20,21,21,21,20,21,20,20,21,21,21,20,20,20,20,20,20,21,20,20,20,20,20,20,21,20,20,20,20,20,20,19,20,19,19,20,20,20,21,20,20,20,20,20,20,20,20,20,20,19,20,20,20,20,20,20,20,19,20,20,20,20,20,20,19,20,20,20,19,20,20,20,20,21,19,21,21,20,20,20,20,20,20,20,21,20,21,21,21,22,21,21,21,21,22,22,22,22,22,22,22,22,22,22,22,21,21,21,21,21,20,20,22,22,22,22,22,22,22,21,22,22,22,22,21,21,21,21,20,20,20,21,20,20,20,21,20,20,20,20,20,20,21,19,19,19,19,19,19,19,20,20,20,20,22,23,22,22,22,23,22,23,23,24,25,24,23,24,24,24,24,24,23,23,24,23,23,23,22,22,22,23,22,22,22,22,21,21,21,20,21,20,20,20,21,21,21,21,21,21,22,21,21,21,21,21,21,21,20,22,21,21,22,22,25,25,26,25,25,27,27,27,28,28,27,27,27,29,29,28,28,28,27,27,28,28,28,29,29,28,28,28,28,28,28,28,27,28,28,28,28,27,27,28,28,28,28,27,28,36,44,48,48,53,55,56,57,60,60,59,59,58,57,63,76,85,87,87,86,85,86,86,85,83,85,91,92,91,93,92,91,90,95,109,139,171,196,210,217,215,215,218,221,220,219,216,221,226,232,245,259,272,272,270,270,277,276,272,270,268,268,264,266,277,294,306,313,310,310,307,311,318,320,337,371,397,421,429,430,434,432,427,435,440,435,431,444,469,500,528,536,541,554,546,546,549,540,529,524,551,587,630,692,745,768,762,764,755,740,738,750,784,822,845,856,858,861,886,897,886,885,871,861,868,877,897,951,974,971,967,975,963,961,952,955,974,979,969,954,946,949,948,933,930,928,926,931,936,944,934,937,958,981,981,980,980,980,979,980,980,979,981,980,981,981,981,980,980,981,980,980,980,980,981,981,981,981,981,980,980,980,980,980,981,981,981,980,981,980,980,980,980,980,981,980,980,980,979,980,980,981,980,980,980,980,980,979,980,980,980,980,980,980,980,980,980,981,980,981,981,980,980,980,980,980,980,980,980,979,980,981,981,980,980,980,980,980,980,980,980,980,980,980,980,980,980,973,952,935,921,910,900,889,879,867,855,845,833,819,806,796,784,772,760,748,736,726,712,697,684,673,665,656,646,635,625,616,607,598,591,583,571,559,551,544,534,529,524,521,517,513,512,509,504,501,498,491,484,483,482,477,467,458,450,443,436,429,422,418,409,403,396,392,386,382,379,377,369,362,355,348,341,334,329,325,319,314,313,312,309,307,303,302,298,293,291,290,287,285,286,288,288,282,277,274,273,268,266,262,257,253,248,245,241,237,234,229,225,223,224,223,219,215,213,209,207,205,202,198,195,192,189,185,181,178,175,174,173,174,179,180,179,177,175,173,174,172,169,167,165,162,160,156,153,151,148,145,144,142,140,137,135,132,131,128,126,124,123,121,121,120,119,120,119,118,117,118,117,115,112,111,110,108,106,105,103,100,99,98,97,96,95,94,92,91,90,87,86,85,84,84,83,83,80,79,78,78,76,75,74,74,73,72,71,70,72,72,71,72,72,71,71,71,70,69,68,67,66,65,63,63,62,61,60,60,60,59,59,57,57,56,55,55,55,55,55,54,54,52,51,50,50,49,49,48,49,48,48,47,46,46,45,43,44,43,42,42,42,42,41,40,40,39,40,39,38,38,38,37,37,38,36,36,36,35,35,35,34,34,34,34,33,34,34,34,34,34,34,33,33,33,33,33,33,32,32,32,32,31,30,31,30,31,31,32,32,32,31,31,31,30,31,31,30,30,30,30,30,30,30,29,29,29,29,29,29,29,28,28,28,28,28,28,28,27,27,27,28,27,27,27,26,26,26,25,26,25,26,25,26,26,27,27,27,26,26,26,26,25,25,25,25,25,25,25,25,24,24,24,24,25,24,23,24,24,24,24,25,24,25,25,25,25,25,24,25,24,24,23,24,25,25,25,24,25,25,24,24,20,21,20,20,20,21,20,20,20,20,20,20
117,121,127,129,129,131,136,139,142,141,138,137,137,137,141,143,142,141,140,138,137,136,135,133,132,130,130,130,129,129,130,130,128,127,126,125,127,128,127,127,128,128,126,125,123,122,122,121,123,126,126,129,132,132,135,138,137,136,137,137,135,136,139,141,141,140,142,141,140,138,137,135,134,133,132,132,132,132,130,130,128,131,131,129,128,127,125,125,123,123,122,121,119,119,118,119,118,119,118,118,117,116,115,114,113,113,114,117,117,116,115,114,113,113,112,112,111,114,113,113,113,112,111,111,112,112,112,116,122,124,125,126,128,127,127,125,123,123,124,124,126,129,129,128,127,129,128,128,130,129,129,129,129,128,129,127,126,126,129,131,129,129,128,127,126,124,124,122,121,121,123,121,120,120,122,124,122,122,123,126,128,127,128,128,127,127,128,133,135,136,142,141,140,138,138,137,135,134,133,133,136,136,136,134,133,133,131,136,141,140,138,138,139,139,142,146,145,150,152,152,152,154,156,161,165,171,171,176,178,178,176,175,174,172,172,179,181,181,185,191,196,196,195,195,197,197,195,196,197,196,194,191,189,187,184,185,189,191,191,191,192,194,193,195,199,204,203,203,204,202,202,202,202,201,203,203,200,198,196,195,193,191,189,185,183,182,183,185,186,186,184,188,191,190,191,194,195,192,188,188,186,184,184,184,183,181,179,178,178,174,178,186,193,192,196,200,198,196,194,191,189,187,184,182,180,178,176,174,172,170,168,166,165,165,167,170,174,174,172,173,178,176,178,180,180,180,178,179,180,179,182,184,182,180,177,176,178,176,176,178,176,175,172,173,175,180,187,192,197,198,200,201,199,197,195,193,191,192,204,212,216,217,216,216,223,224,225,222,220,217,214,212,213,222,230,231,238,237,235,234,233,230,233,233,231,237,241,240,240,239,235,231,229,225,225,222,227,225,222,219,218,215,214,220,233,240,244,248,246,248,251,250,249,247,244,246,250,249,254,253,251,250,246,249,269,274,272,293,316,323,327,334,356,366,371,370,365,361,356,357,356,351,349,348,347,342,349,367,384,390,387,386,380,377,379,378,375,372,366,362,364,364,361,359,354,351,352,371,391,387,381,383,376,377,378,374,377,391,392,403,400,398,411,417,419,423,435,434,434,428,429,428,422,419,412,406,400,400,409,410,409,405,409,410,404,398,393,387,383,378,372,365,360,355,350,347,343,339,341,350,349,344,359,382,384,381,379,374,379,380,377,371,366,361,359,355,349,343,337,333,327,322,320,319,316,311,307,302,298,293,292,301,309,307,305,302,297,295,291,287,282,277,274,273,272,269,264,262,261,259,256,252,249,245,243,243,241,239,237,241,250,259,259,255,252,249,249,260,270,273,273,279,285,295,304,313,318,316,310,307,304,299,301,303,305,305,302,299,300,302,302,301,301,301,300,300,295,294,290,285,290,306,326,327,327,330,328,325,321,321,333,343,347,346,341,338,334,335,331,329,326,321,318,325,338,348,356,358,372,367,363,356,352,347,347,349,346,344,356,380,404,418,450,445,448,443,437,442,458,465,476,474,474,474,486,483,477,477,478,475,487,485,487,493,497,495,494,493,486,487,494,502,509,507,506,498,497,501,507,519,524,522,532,558,560,552,544,536,533,536,531,525,529,527,520,519,528,540,538,544,554,565,574,573,567,566,561,554,547,538,530,523,515,510,503,495,488,486,480,477,476,482,485,485,489,481,477,472,465,459,452,449,455,467,464,468,479,479,471,465,460,459,454,448,441,436,429,424,425,420,414,407,405,400,397,395,398,400,400,398,408,408,410,415,410,406,399,394,388,381,376,375,377,377,370,368,368,363,358,355,354,359,354,350,346,343,339,333,329,328,327,323,324,325,327,343,342,342,340,336,335,332,328,324,320,316,313,311,311,315,316,312,316,315,312,308,304,299,297,298,298,294,291,286,282,281,280,282,280,276,278,282,283,291,299,307,311,308,312,317,315,310,307,305,300,297,296,296,292,289,289,289,290,295,297,297,294,293,288,284,282,282,277,273,273,272,268,265,261,260,260,259,259,258,256,253,263,268,267,270,269,265,261,258,254,251,253,254,256,261,269,267,264,266,266,264,260,258,254,251,249,248,246,244,241,243,241,242,242,244,244,240,238,240,243,248,249,249,249,248,244,241,237,233,231,229,227,224,222,222,221,220,218,218,215,212,211,211,208,205,207,209,207,205,203,202,203,202,201,134,133,134,134,135,134,135,133,134,132,133,134
20,20,20,20,21,21,21,21,21,21,21,21,21,22,21,22,22,22,22,23,22,23,23,23,22,22,22,22,22,23,23,22,22,22,23,23,22,22,22,23,22,22,23,22,22,22,22,22,22,23,22,23,22,22,22,22,23,22,23,22,22,22,22,22,23,22,22,22,23,22,22,22,22,22,22,23,22,22,22,22,22,21,22,22,21,21,21,21,21,22,21,21,20,21,21,21,21,21,22,21,21,21,21,21,21,21,20,21,20,20,20,21,20,20,21,21,21,21,21,22,21,21,21,21,21,21,20,20,21,21,21,21,21,21,21,21,21,22,21,21,21,21,22,22,22,21,21,21,21,21,21,21,21,20,21,20,21,20,20,20,20,21,20,21,21,21,21,21,20,21,21,20,20,20,20,20,21,20,21,20,20,20,20,20,20,20,21,20,20,21,21,21,20,21,20,21,21,20,20,20,21,21,21,20,21,21,21,20,21,21,20,21,21,20,21,22,22,22,22,22,21,22,22,22,21,21,22,21,21,21,21,21,21,21,21,21,21,21,21,21,21,21,21,22,22,22,22,22,21,21,21,21,21,21,21,21,21,21,20,21,20,20,20,20,20,19,20,21,20,20,21,20,20,20,21,20,21,21,21,22,21,21,20,21,21,22,23,22,23,22,22,22,22,22,22,21,22,22,21,21,22,21,21,21,20,21,20,21,21,22,21,21,21,21,22,21,21,21,21,21,20,20,20,21,20,20,20,20,20,20,20,20,20,20,20,21,21,21,21,20,20,21,21,20,21,21,21,21,21,21,22,22,21,21,21,21,21,22,22,23,23,22,23,22,22,22,22,21,23,22,22,22,22,22,23,23,23,22,23,22,22,22,22,22,22,22,22,21,21,22,22,21,21,20,20,21,21,20,20,20,20,20,21,20,21,21,21,23,24,25,25,24,25,25,29,38,45,47,48,49,54,56,55,55,54,52,52,52,52,54,53,52,52,51,51,52,52,52,50,50,49,49,49,48,48,47,48,47,46,45,45,45,43,44,45,47,48,48,53,64,73,77,79,81,83,83,81,80,79,78,77,77,79,84,86,85,85,87,97,113,134,158,183,201,213,217,214,212,210,207,204,208,218,240,270,299,322,338,344,342,340,361,385,396,395,405,415,428,472,525,560,588,613,642,679,736,773,792,816,838,841,840,880,940,979,980,980,981,981,981,981,980,980,981,980,980,981,980,980,981,980,981,980,979,979,980,980,981,981,981,980,980,980,980,980,981,981,981,980,980,980,980,980,980,981,981,980,981,980,980,980,981,981,981,981,981,981,981,981,981,980,980,981,981,980,981,981,981,980,981,980,980,981,981,981,981,980,981,980,981,980,981,981,981,980,981,981,980,981,980,981,981,981,981,980,980,980,980,980,980,981,980,980,981,980,981,981,981,981,981,980,980,980,981,980,981,981,981,981,982,981,981,981,980,981,980,980,980,981,981,980,980,980,980,981,980,980,981,980,980,980,980,980,980,980,980,981,981,981,981,980,980,980,979,980,980,980,980,981,981,980,981,980,980,980,980,980,980,981,981,980,980,981,980,980,980,972,956,943,930,914,899,886,873,861,850,836,823,814,803,791,784,774,758,743,728,716,713,709,699,685,671,658,650,640,628,615,604,593,585,576,567,558,551,548,551,560,562,551,543,538,533,524,519,511,501,491,484,485,487,484,480,477,471,462,457,452,443,437,431,422,414,405,397,389,381,373,366,359,352,347,341,339,337,338,334,327,321,314,308,302,296,291,287,281,279,281,278,279,277,273,275,279,278,272,266,261,256,251,246,241,237,231,228,224,220,216,213,209,205,201,198,195,194,190,188,185,181,177,174,171,167,165,162,159,157,153,151,149,147,145,144,142,139,136,134,131,129,126,125,127,132,136,135,141,144,145,144,141,139,137,136,134,132,130,127,125,122,121,119,117,114,112,111,109,107,105,103,101,101,98,96,96,93,92,90,89,87,87,84,84,83,82,80,79,77,77,75,74,75,74,76,76,76,77,76,74,73,72,71,70,69,68,66,66,64,64,64,63,62,61,60,59,59,58,56,57,55,55,54,54,52,52,51,51,49,49,49,48,47,47,46,45,45,45,43,43,43,42,42,41,40,40,40,40,39,38,38,38,38,37,36,37,36,36,35,35,34,34,33,34,35,35,34,34,34,33,33,32,32,32,32,31,31,32,31,31,30,30,30,30,29,29,29,29,29,28,27,27,27,27,27,27,27,27,26,27,26,26,27,27
133,132,133,134,133,131,136,143,147,147,151,158,165,170,170,168,168,167,166,165,163,162,159,159,157,154,152,151,150,152,156,161,167,167,167,166,163,161,161,161,163,164,163,162,159,159,158,157,156,155,154,154,156,158,156,154,152,151,149,148,148,146,146,149,150,153,158,160,163,163,161,159,158,155,154,153,151,150,150,150,148,148,148,149,151,150,150,148,148,147,146,145,147,147,146,145,145,146,147,146,144,143,142,143,145,147,148,146,145,145,146,146,146,145,144,143,144,143,142,142,140,139,138,141,144,144,143,143,143,146,148,148,146,145,145,143,142,142,144,145,145,143,143,144,143,143,144,143,142,140,141,142,141,141,140,140,138,136,135,134,136,137,138,140,144,147,147,147,148,147,146,146,146,145,144,144,147,149,148,147,146,144,142,142,141,143,143,143,142,141,140,141,142,142,141,141,139,138,137,138,140,142,143,142,144,144,144,142,142,142,141,141,139,137,137,137,137,138,139,139,137,136,134,133,131,131,130,129,129,129,128,128,131,135,138,137,136,135,134,136,135,134,133,133,131,132,133,131,130,128,130,131,134,136,137,134,134,131,130,131,129,128,127,126,125,125,125,127,127,125,124,123,124,122,123,121,121,120,121,122,123,124,126,132,138,143,144,142,140,139,139,141,142,142,142,143,142,140,141,140,139,138,139,137,139,142,144,144,144,143,142,143,145,146,144,145,145,146,144,145,145,143,143,141,143,143,144,145,143,142,143,143,143,143,142,141,142,143,142,142,142,143,142,141,140,139,140,139,138,139,141,144,146,145,144,143,144,145,144,143,141,140,138,138,140,144,144,145,145,146,146,144,143,141,143,143,142,143,143,141,141,142,142,147,150,149,150,150,149,150,151,150,149,152,154,160,162,161,161,167,169,168,167,164,168,175,181,183,192,194,194,194,194,192,194,194,204,211,214,214,212,211,207,205,207,214,221,228,228,235,239,241,242,240,237,234,235,239,237,237,239,239,245,249,250,254,265,266,262,258,258,256,252,249,247,244,244,246,248,246,244,243,239,236,233,231,229,227,233,245,252,252,256,261,271,272,286,292,290,286,283,280,278,274,272,268,273,278,277,274,274,273,271,267,265,267,270,268,270,271,270,266,265,264,268,275,277,275,280,297,303,299,295,292,291,291,289,296,303,300,300,311,311,313,313,307,306,309,306,304,323,357,371,376,382,379,377,380,376,374,368,378,406,421,419,427,437,430,425,422,419,423,431,431,425,417,409,402,395,390,384,387,402,431,451,451,458,459,453,457,459,456,461,474,469,466,462,458,459,451,443,437,430,436,450,446,439,443,461,479,482,498,494,488,484,495,509,524,522,529,528,523,520,512,504,495,487,487,504,515,537,553,552,566,562,551,546,540,533,533,526,517,512,509,502,497,499,493,487,492,500,502,507,504,505,500,491,483,476,478,508,530,531,528,524,524,516,512,503,496,489,487,484,476,468,461,453,446,439,435,431,425,419,415,412,410,405,402,402,396,391,389,391,388,382,381,385,381,375,369,364,360,355,350,344,342,347,351,351,350,350,348,343,337,334,333,334,335,334,334,333,331,329,329,326,323,320,318,315,312,308,303,303,303,308,310,307,304,300,303,324,341,339,333,329,332,332,333,342,359,361,358,355,352,348,348,356,358,352,350,353,368,394,403,403,416,422,418,412,416,417,427,450,476,488,483,491,500,495,492,490,488,482,474,469,462,458,452,456,458,453,453,446,454,461,455,447,447,452,452,459,460,462,473,476,472,471,471,480,485,488,489,507,516,509,505,511,514,509,505,509,506,508,509,500,497,493,513,526,519,512,510,513,508,500,497,488,480,478,483,478,470,472,479,481,492,508,521,529,559,574,584,610,626,624,633,647,649,639,629,626,617,607,596,586,575,564,554,546,536,527,518,511,504,498,492,499,502,507,522,517,511,503,496,489,481,475,474,469,468,463,456,449,444,439,434,428,422,415,409,405,398,400,401,399,407,412,410,415,419,416,413,410,412,417,417,413,409,402,399,397,390,383,378,373,367,366,362,358,353,347,344,341,338,333,328,324,322,319,318,315,311,308,308,305,306,311,313,310,306,308,310,307,303,300,303,304,303,299,300,299,297,298,297,294,292,291,287,286,284,281,282,279,275,273,269,270,266,265,266,265,266,267,264,265,262,261,258,255,252,252,249,249,252,254,254,251,248,247,250,251,248,244,241,238,236,244,219,218,220,222,223,223,222,222,223,227,228,225,222,219
27,27,27,26,26,27,27,27,27,27,27,28,28,27,27,27,27,27,27,27,27,27,28,29,28,28,28,28,28,28,28,28,27,27,27,27,27,27,28,28,28,28,29,28,28,28,28,29,28,30,30,29,30,30,31,30,30,29,30,30,30,29,30,31,30,30,30,30,30,30,30,30,30,30,30,31,31,30,31,31,30,30,30,30,29,29,29,29,29,29,28,29,28,28,29,29,29,29,29,29,29,29,30,29,29,29,30,29,29,29,29,30,29,29,29,30,30,30,31,32,32,31,31,31,31,31,32,32,32,32,33,31,31,31,31,30,30,30,30,30,30,30,30,30,29,30,30,30,29,30,29,28,28,28,28,28,28,28,29,29,28,28,29,28,28,27,28,28,28,28,28,29,31,30,30,31,30,30,30,29,29,29,29,29,29,28,28,28,28,28,29,28,29,29,29,29,29,29,29,29,28,28,29,28,28,28,28,27,28,29,29,29,28,28,29,29,31,32,32,32,35,38,45,50,51,51,54,55,55,63,73,85,94,102,105,104,103,104,107,119,139,156,165,165,173,179,182,180,180,186,196,206,214,223,227,228,224,227,231,231,226,223,228,235,246,254,256,265,275,283,291,299,303,298,293,292,296,297,292,291,302,322,335,352,379,404,427,450,446,458,470,468,470,499,547,579,589,583,604,629,628,634,710,816,873,871,883,921,916,907,901,889,872,854,844,828,827,835,846,843,830,847,868,892,896,886,886,916,953,974,960,947,932,920,925,958,980,980,981,980,980,981,980,975,960,955,949,932,925,916,912,925,954,981,981,980,980,980,980,980,981,981,981,981,980,980,980,980,980,980,980,981,978,964,945,927,908,892,882,873,860,845,843,849,852,880,951,980,979,980,980,980,980,980,979,980,980,980,980,980,971,952,933,922,916,910,900,888,874,859,845,830,815,798,781,768,757,742,734,729,730,763,785,782,792,826,828,816,799,788,791,786,779,772,761,747,735,724,714,706,697,687,676,666,657,647,638,627,617,608,600,592,583,573,563,554,546,540,532,521,512,502,499,497,497,498,495,486,481,475,470,464,455,449,444,436,434,431,424,417,416,408,403,406,409,408,404,401,400,396,388,383,375,372,366,359,351,347,349,353,353,348,344,343,344,342,335,330,328,325,318,316,312,307,305,307,308,303,300,294,288,283,281,279,276,272,267,261,256,252,247,243,241,238,233,229,225,221,219,221,221,217,213,209,206,201,198,194,192,189,185,183,183,183,180,176,173,170,167,164,162,160,156,153,150,148,146,144,141,144,148,150,148,148,153,154,151,151,150,148,147,145,143,140,137,135,133,131,129,127,126,124,121,119,117,116,113,112,109,107,106,104,102,102,101,100,98,97,97,95,93,93,91,90,89,87,86,85,84,84,82,81,81,80,79,79,77,76,75,75,73,72,71,71,69,70,69,68,67,65,65,63,63,62,61,61,60,60,60,59,58,57,57,56,56,54,54,53,52,51,51,51,52,53,53,53,53,53,53,55,55,57,56,56,55,54,54,54,53,52,53,51,52,51,51,51,50,50,49,49,48,48,48,47,47,47,47,46,46,46,46,45,45,44,43,44,44,44,43,43,42,42,41,42,40,40,41,43,42,41,41,41,41,40,41,40,39,38,39,39,39,38,38,38,39,38,39,39,38,39,38,38,38,38,37,37,37,36,36,36,36,36,36,36,35,35,35,35,34,33,33,33,33,33,32,32,33,33,33,34,33,33,32,32,32,33,32,33,32,31,31,30,31,31,31,31,31,30,32,30,30,30,29,29,28,29,29,29,29,29,28,28,29,28,29,28,28,28,29,29,29,28,28,28,28,28,28,28,27,27,28,28,29,29,29,28,29,29,30,30,31,31,30,33,35,34,34,34,33,34,34,33,33,34,35,37,37,36,38,38,37,37,36,36,36,36,36,35,35,35,35,35,35,35,34,34,34,33,33,33,33,32,32,31,31,33,31,31,31,31,31,31,31,30,30,30,30,30,30,31,31,30,31,31,30,29,29,29,29,28,28,28,28,29,28,28,28,28,28,28,27,27,29,28,28,29,29,29,28,29,28,28,28,29,29,29,29,29,30,30,30,29,30,29,29,29,28,28,28,28,27,28,27,27,28,28,28,28,28,28,28,27,27,28,29,30,31,32,32,32,33,32,32,32,32,31,32,32,32,32,31,31,31,31,32,31,31,31,31,31,31,31,32,31,31,30,31,31,30,31,30,31,31,31,30,30,30,31,30,31,31
220,223,226,228,229,227,224,223,223,224,222,220,220,221,224,226,228,227,224,220,217,215,215,215,214,211,210,213,219,225,227,228,227,225,222,220,218,215,214,214,216,216,218,222,223,220,218,218,218,219,217,215,211,211,215,217,220,221,221,217,214,212,213,214,217,216,215,218,221,224,224,221,218,216,214,214,216,216,214,211,209,210,216,225,232,234,231,228,225,222,219,218,217,218,223,229,232,231,227,226,225,225,225,225,224,222,222,223,225,226,226,227,227,228,227,229,229,227,226,224,221,220,219,219,219,219,217,215,215,216,217,217,217,217,216,216,217,218,218,217,217,219,224,228,226,225,222,221,219,218,221,223,224,223,222,222,220,217,214,211,208,209,209,212,215,218,220,223,227,228,225,224,222,220,220,224,228,231,232,230,227,226,229,229,228,224,221,221,223,224,224,225,227,224,223,220,220,220,218,216,217,218,219,218,216,216,215,218,222,223,219,217,214,213,211,209,208,206,205,204,202,202,201,199,197,195,193,195,198,199,198,196,195,192,198,208,211,214,221,222,220,220,219,218,217,215,215,222,231,237,236,239,238,238,243,253,254,253,250,247,251,251,259,264,263,264,259,257,257,265,273,276,272,274,282,280,277,279,283,281,279,281,286,288,286,283,279,277,273,271,267,268,271,274,275,279,276,274,275,274,275,275,276,273,273,276,276,274,276,282,287,302,319,331,329,332,344,356,357,355,358,369,369,383,389,387,384,383,382,376,375,379,386,386,394,394,387,382,377,374,387,392,385,381,379,378,407,441,443,452,450,444,439,443,445,447,447,445,440,432,424,417,411,405,399,393,387,381,375,372,368,362,356,354,348,343,336,335,331,325,321,319,316,313,309,316,321,319,317,315,314,309,304,302,301,297,294,290,285,284,287,287,284,281,276,272,270,266,262,258,255,252,251,252,251,249,247,248,250,250,246,243,241,240,241,244,245,244,244,245,248,248,246,243,241,240,241,242,243,244,243,244,243,243,241,239,236,237,239,239,240,245,256,263,264,262,263,260,260,262,264,265,268,288,307,313,311,320,322,325,345,349,348,349,348,357,360,358,354,350,344,339,357,387,397,397,400,396,401,419,435,441,434,430,434,430,426,426,429,438,441,444,450,461,461,452,451,460,458,461,456,450,454,473,492,492,486,479,493,517,527,528,550,569,577,576,587,592,589,592,601,598,598,598,598,597,599,593,586,578,576,567,567,560,556,550,540,537,529,523,518,528,533,526,521,512,512,505,506,507,511,521,525,524,532,552,553,544,538,537,532,540,542,534,538,544,540,548,558,552,544,541,535,530,522,528,529,522,521,529,534,530,525,519,510,507,502,496,491,485,489,490,494,488,487,491,488,481,479,486,489,486,488,483,475,468,467,460,459,462,458,463,462,456,452,446,442,434,430,429,435,440,439,437,434,438,440,447,447,440,434,427,419,414,407,401,395,395,397,393,389,384,382,381,376,370,365,360,357,354,350,347,343,338,334,331,329,327,325,338,350,346,346,350,346,343,339,334,331,333,343,342,337,332,329,328,333,339,336,331,326,321,318,315,316,315,312,311,309,310,308,312,314,311,314,317,313,310,308,310,315,316,315,317,314,310,306,303,301,297,292,290,287,284,280,276,275,283,286,286,282,278,282,292,291,293,292,291,290,289,287,284,280,275,271,269,267,269,267,264,262,269,271,269,267,263,260,257,255,256,259,259,259,256,256,253,250,247,244,241,241,239,237,235,232,230,227,226,229,229,228,226,224,223,220,221,221,219,216,213,212,210,207,212,218,217,215,213,209,207,205,205,204,202,201,202,207,206,205,203,202,200,198,196,197,194,193,191,190,189,187,187,185,182,180,177,177,179,178,179,176,177,175,175,177,178,178,176,175,175,173,175,180,179,178,178,176,174,172,170,168,167,165,166,164,164,170,169,167,169,172,171,171,174,182,182,183,186,187,185,183,181,178,177,176,179,178,178,177,175,175,173,171,171,170,168,166,164,164,162,161,160,164,172,180,181,189,196,195,194,197,197,194,191,190,190,188,185,183,186,188,188,187,186,189,189,187,185,184,181,180,178,181,184,183,183,183,183,184,183,181,178,179,178,177,176,179,181,182,181,180,179,176,174,173,172,171,170,169,169,172,176,178,176,174,173,172,170,170,170,171,170,173,179,179,188,190,187,187,193,199,199,202,204,202,201,199,197,195,193,192,189,188,190,190,144,144,145,144,142,143,141,140,138,137,137,136,136,139,144,145
32,32,32,33,35,34,34,34,34,34,33,33,33,33,32,32,32,33,33,33,35,35,35,35,37,38,38,37,37,36,37,41,45,48,49,50,53,53,52,51,52,54,52,52,52,51,50,50,50,49,50,50,49,48,48,50,50,52,56,59,60,61,60,64,68,67,68,69,69,69,68,67,66,65,64,64,64,64,64,65,68,67,65,66,69,70,69,67,66,65,66,68,69,67,67,66,65,65,65,66,64,64,64,63,64,63,63,62,61,60,60,60,59,60,62,63,62,63,65,64,63,62,61,59,59,58,58,57,55,55,55,56,56,56,54,53,52,52,52,52,51,50,50,49,50,51,51,50,49,49,48,49,49,48,48,49,49,50,52,51,52,51,51,51,50,49,49,49,48,48,50,57,61,61,61,63,63,62,63,63,62,61,61,60,58,60,59,58,57,57,55,56,54,54,53,52,51,51,53,53,52,52,52,52,51,51,50,49,48,49,48,48,48,47,47,46,45,45,45,44,44,43,43,42,42,42,42,41,40,40,39,39,39,38,37,37,38,37,38,37,37,36,37,38,41,44,45,46,47,48,48,49,51,51,52,51,51,51,51,51,52,52,53,53,52,51,51,50,50,50,49,51,52,53,52,51,51,51,50,50,51,52,55,58,62,64,68,70,73,78,87,99,120,148,178,206,224,232,245,248,248,246,251,265,293,326,363,396,413,422,425,419,417,430,427,429,445,464,473,469,462,472,481,477,491,507,545,594,646,703,743,756,745,758,761,752,781,820,836,835,868,891,909,903,883,883,922,957,979,975,975,980,980,980,980,980,979,973,963,944,935,980,980,980,981,980,980,980,980,980,980,981,980,980,980,980,980,981,981,981,980,981,980,980,980,980,980,981,980,981,981,981,980,981,981,980,981,981,980,981,981,980,980,981,981,981,976,974,980,981,967,960,954,952,945,934,920,902,887,872,862,854,841,827,813,796,780,767,756,746,736,723,708,696,680,667,654,644,634,623,611,600,590,584,578,566,555,546,541,541,539,529,522,511,504,508,516,518,518,511,507,511,509,501,496,488,480,475,478,479,472,476,482,484,478,476,473,464,466,470,466,456,447,438,432,424,415,407,402,406,416,419,413,412,416,416,414,409,404,398,390,382,376,368,360,354,347,339,334,330,327,325,320,314,310,304,299,294,291,288,284,279,274,269,264,259,254,252,247,242,240,237,234,231,228,223,221,217,213,209,206,202,199,195,192,191,189,185,186,183,181,178,176,175,172,168,165,162,159,156,155,154,153,149,146,144,142,139,137,135,133,131,128,126,126,124,122,120,118,117,116,116,114,115,113,112,109,108,106,104,102,99,99,98,97,96,96,94,92,92,92,95,94,96,101,111,110,111,112,110,109,106,105,104,102,100,99,97,95,94,95,93,92,90,89,88,87,87,85,84,82,81,79,79,78,77,76,75,73,72,72,71,69,68,67,66,66,66,65,64,63,62,62,61,60,59,58,57,57,57,58,58,57,57,57,57,56,55,54,57,61,62,62,65,67,67,66,66,66,66,66,64,64,63,63,62,62,61,60,60,59,59,58,58,57,56,56,55,54,53,53,52,51,52,50,49,50,49,48,48,47,47,46,46,46,45,45,44,43,43,44,44,43,44,44,43,43,42,43,43,46,47,46,47,47,46,46,45,45,44,45,43,43,42,42,43,43,44,43,43,43,42,42,42,42,42,42,42,43,42,42,41,42,40,39,39,39,39,38,38,38,38,37,38,39,38,38,37,37,36,36,36,36,36,35,35,34,35,34,33,33,32,33,33,32,32,32,32,32,32,32,32,32,32,32,32,31,31,32,31,31,31,30,31,31,31,30,30,30,30,29,29,29,30,30,30,30,31,31,31,31,31,31,32,32,31,31,32,32,31,31,31,32,32,32,31,31,31,31,31,30,30,30,31,30,30,29,30,28,29,29,29,29,29,29,28,28,29,29,28,28,28,28,28,28,27,28,28,28,28,28,28,27,27,27,27,27,28,28,28,28,28,28,28,28,29,29,28,28,28,28,29,28,28,28,28,29,29,29,29,29,28,28,29,30,30,29,30,31,30,31,30,30,30,30,30,30,30,30,30,29,30,29,29,30,29,29,29,29,30,31,30,29,29,29,29,29,29,29,29,29,28,28,28,28,27,27,28,28,28,28,28,28,28,28,28,27,28,27,28,27,28,27,28,29,28,27,28,27,27,28,29,29,29,29,30,30,29,30,30,29,29,29,29,29,28,29,29,28,29,28
214,212,212,210,206,205,207,204,203,201,201,200,201,200,200,197,194,194,194,199,199,199,202,203,211,218,223,233,235,251,260,263,273,276,273,272,271,270,278,278,276,279,289,296,293,292,290,293,292,288,286,289,289,285,281,282,283,280,276,272,271,267,265,262,263,272,279,278,279,277,274,270,266,263,259,257,254,258,260,262,266,265,261,259,258,267,281,282,298,308,311,330,340,334,331,332,328,324,318,313,308,303,301,297,299,302,299,298,295,292,289,290,288,290,298,306,315,317,316,318,318,319,327,327,331,335,331,327,322,316,314,313,310,308,314,318,323,325,324,322,323,326,340,342,349,348,347,346,345,353,359,356,353,350,345,341,338,348,363,365,371,375,376,374,372,389,399,395,401,407,404,402,403,403,398,399,399,395,395,392,387,384,382,376,371,366,360,356,352,351,351,356,369,372,370,374,384,383,388,403,408,425,426,422,416,413,411,410,410,408,402,397,390,385,380,373,370,373,378,376,372,370,368,361,356,356,354,350,345,341,337,334,330,328,324,321,317,314,309,304,299,296,295,295,296,293,289,286,283,285,281,280,277,277,277,275,288,300,300,305,306,303,302,301,300,301,300,298,296,297,292,291,291,288,283,279,277,272,270,267,265,263,270,278,278,277,275,276,274,272,269,267,265,264,264,261,263,267,272,278,279,279,286,286,286,283,278,277,276,277,285,286,295,295,294,292,292,296,293,290,291,306,325,345,346,356,373,377,373,369,362,361,366,377,385,382,378,384,380,374,370,367,370,372,368,371,376,372,365,360,358,363,360,355,349,343,338,335,332,337,339,337,334,329,324,323,328,331,338,341,345,364,379,379,388,397,400,396,390,387,385,382,382,378,372,369,378,398,398,407,413,413,408,402,395,392,390,385,381,381,377,376,376,374,372,365,359,359,356,353,347,342,340,337,336,334,331,326,320,316,315,311,308,305,302,304,307,310,309,305,304,300,301,302,301,298,297,299,307,310,310,308,303,299,298,304,312,316,320,324,330,341,343,351,355,364,363,360,356,354,359,375,394,408,409,423,440,440,443,441,447,447,457,461,456,460,462,473,480,475,467,461,462,488,546,565,583,617,619,618,615,637,660,654,646,639,640,634,638,643,646,650,677,697,694,686,688,681,681,681,695,696,720,732,728,732,735,741,733,744,777,781,778,776,770,770,793,789,779,775,781,797,799,791,781,770,763,768,775,771,771,762,756,773,778,768,755,754,743,732,720,712,708,700,697,691,683,672,663,652,640,631,620,612,605,596,585,582,580,573,569,562,552,546,546,553,552,554,545,538,528,525,536,541,536,537,538,529,526,525,528,534,538,531,524,516,509,504,498,491,486,490,492,489,480,475,471,466,465,460,460,459,454,449,441,434,436,432,428,427,426,420,414,408,402,397,392,390,386,383,383,390,388,382,381,378,381,387,387,386,382,378,374,371,371,377,374,369,365,359,356,354,350,348,357,363,364,359,358,356,359,362,365,361,356,350,345,339,335,330,326,328,331,331,326,323,319,315,314,316,326,327,325,321,326,330,328,333,336,333,333,336,336,333,334,332,328,325,321,317,312,308,306,311,313,308,304,299,296,299,296,296,298,298,296,292,289,286,284,279,276,272,268,264,261,258,254,251,251,254,254,251,250,249,246,243,241,240,242,244,242,239,235,232,229,227,226,224,222,221,219,223,234,240,243,241,238,234,234,240,241,238,236,237,237,236,232,232,231,229,227,226,224,221,221,220,220,222,221,220,217,215,212,213,210,208,206,206,204,201,199,198,195,194,195,207,213,212,213,212,212,209,207,204,201,200,198,195,193,191,190,188,187,190,190,192,196,197,194,192,190,189,187,187,186,189,188,190,189,186,185,185,184,183,186,184,184,181,179,178,177,175,173,170,169,172,177,178,178,182,185,184,184,186,188,186,184,182,180,184,188,191,201,203,201,198,195,194,191,189,187,186,189,194,197,195,194,192,190,189,195,200,200,201,198,197,196,195,192,190,188,185,183,181,179,177,174,173,173,171,176,182,184,183,183,181,182,181,184,185,184,185,186,189,190,189,188,187,186,184,183,181,180,178,176,173,171,172,174,177,179,181,186,190,189,187,185,185,183,181,180,179,176,174,172,169,167,166,165,165,164,165,166,164,162,160,157,159,161,160,163,171,171,169,169,169,169,168,167,164,162,160,159,160,165,170,171,170,175,176,175,153,154,154,152,151,152,153,152,150,149,149,148,148,149,149,149,148,148,148,149
29,29,28,28,28,28,29,28,28,29,28,29,29,29,29,28,29,29,29,29,28,29,29,28,28,28,28,27,28,28,28,29,28,28,28,28,29,29,29,29,29,29,30,30,29,29,30,30,30,30,30,30,30,30,30,30,30,29,30,30,29,30,30,31,31,30,30,29,29,30,30,29,29,29,29,29,29,29,30,30,30,29,30,30,29,29,29,29,30,30,31,30,30,30,30,30,30,30,30,30,30,30,30,30,30,29,30,29,30,31,32,31,31,31,31,31,32,32,31,31,31,32,32,31,31,31,31,32,32,32,31,31,31,31,30,30,30,30,30,30,30,30,30,30,30,31,30,30,30,30,30,30,30,30,31,31,30,30,30,31,30,30,30,31,30,30,31,31,30,30,30,30,30,30,30,31,31,30,30,31,30,31,31,30,32,31,31,31,32,30,32,30,31,31,31,30,30,30,30,31,30,30,30,30,31,30,30,30,31,31,31,30,30,29,30,30,30,30,30,29,30,30,30,31,31,30,31,31,31,31,31,31,31,31,31,31,31,32,32,32,32,32,31,32,32,31,31,31,31,31,32,32,32,31,31,30,31,31,31,30,31,30,31,31,31,30,31,31,32,34,36,38,38,38,37,37,39,37,38,38,38,38,41,40,41,40,39,38,38,39,40,39,38,38,38,38,37,37,37,37,37,37,37,38,38,37,37,37,36,37,37,36,36,36,36,37,37,38,37,37,38,38,38,37,37,36,36,36,36,37,37,37,37,37,38,38,39,38,38,37,37,37,37,36,36,36,35,35,34,34,34,34,33,33,33,33,35,35,35,34,34,35,34,35,35,35,37,38,41,46,49,48,47,48,50,51,51,52,50,50,50,51,56,64,72,75,77,83,92,100,106,110,112,111,109,108,107,106,104,106,119,141,165,187,207,226,232,229,236,249,253,253,250,251,262,277,299,329,356,365,370,369,371,382,386,383,401,437,477,519,560,576,570,565,561,552,546,540,552,561,554,581,647,707,732,722,732,762,774,764,770,782,825,875,910,919,919,910,907,911,901,896,893,899,919,930,915,899,888,886,895,896,884,873,907,981,981,981,981,980,981,980,981,980,981,981,981,980,981,981,981,981,980,980,975,963,948,937,920,905,900,904,898,891,878,863,848,833,820,809,799,789,791,798,796,782,785,803,803,793,795,812,836,842,833,833,845,854,854,853,848,840,828,812,844,966,981,981,980,981,980,980,981,981,980,981,981,981,981,981,980,980,981,980,981,981,980,979,961,943,927,911,893,876,859,844,827,811,794,779,764,752,745,746,745,734,722,709,694,680,667,655,642,630,628,629,619,613,618,620,612,601,588,576,565,554,546,542,543,537,530,527,522,517,519,514,502,494,485,476,467,458,454,447,444,436,431,441,438,434,427,420,416,411,402,394,387,380,372,366,362,357,349,343,339,336,334,327,321,314,308,303,298,293,288,282,277,271,266,263,258,256,250,245,242,239,236,232,227,224,219,216,213,210,207,202,198,195,192,188,185,182,180,177,175,173,171,168,164,162,159,156,155,152,149,146,143,142,141,139,137,135,133,132,129,128,125,123,121,120,118,116,115,112,111,109,109,106,105,103,102,100,98,97,96,96,94,94,92,93,93,91,90,88,88,86,87,85,84,84,84,83,82,81,79,79,78,77,76,76,75,74,73,71,71,70,69,69,68,68,67,65,64,64,63,63,62,61,60,60,59,59,57,56,56,55,54,53,53,52,51,51,52,52,52,51,50,50,50,49,49,49,48,48,47,48,48,50,51,52,52,52,52,50,50,50,49,49,48,48,48,47,47,46,46,45,45,45,45,45,43,44,44,43,42,41,41,42,42,43,42,42,41,42,41,41,42,41,41,41,40,40,40,39,39,39,39,39,38,38,38,38,38,38,38,38,38,38,38,38,37,37,37,37,37,36,37,36,36,37,37,36,37,36,37,36,36,36,36,35,36,35,35,35,35,35,35,35,35,34,35,35,35,34,35,34,35,36,35,35,35,35,35,35,35,35,35,34,35,35,35,35,35,35,35,35,35,35,35,35,35,34,35,35,35,36,35,35,35,35,36,36,37,35,35,35,35,36,35,36,35,35,35,36,36,36,36,36,35,36,36,36,36,36,36,35,35,36,35,35,36,35,36,36,36,36,36,36,36,36,35,34,35,34,34,34,35,36,36,36,36,35,35,36,35,35,35,35,35,26,26,27,26,26,26,26,27,26,26,26,26,26,27,26,27,27,27,26,27,26,26
149,147,145,143,142,142,144,145,144,144,145,147,147,147,145,143,142,139,138,139,142,145,148,147,146,147,148,148,147,145,144,143,141,141,142,142,142,140,140,141,141,139,138,136,135,133,134,135,135,136,135,135,137,139,138,136,135,133,132,132,133,133,133,133,132,132,133,131,130,129,128,127,126,127,127,126,125,124,124,126,125,125,127,127,126,125,127,131,131,132,131,132,132,133,133,133,131,129,129,127,127,126,125,123,123,124,125,124,123,122,120,119,118,118,118,116,116,115,115,117,116,116,115,114,113,114,112,111,112,112,112,112,114,115,115,113,113,111,111,110,109,109,109,108,107,108,110,109,108,107,107,107,106,107,106,106,105,104,103,103,102,102,101,100,99,98,99,100,99,98,98,98,98,100,100,101,102,100,100,100,104,106,108,108,108,107,107,106,105,105,105,105,104,104,104,105,106,104,105,109,110,110,110,110,111,109,113,115,116,114,114,117,120,124,124,123,123,122,121,120,121,120,119,118,117,116,117,115,115,114,113,114,114,117,118,119,118,118,116,115,114,114,113,113,111,111,110,109,109,113,115,118,122,124,128,128,131,136,147,156,161,161,161,165,166,165,163,162,162,159,159,159,159,160,161,162,169,173,175,174,176,181,190,196,199,207,206,203,203,207,209,209,216,215,212,212,211,213,213,213,211,209,209,216,226,228,225,222,222,223,226,242,246,251,260,256,259,272,282,289,289,288,289,289,289,290,291,287,285,282,279,279,279,275,271,267,264,263,269,273,270,268,264,260,256,252,249,249,246,242,240,237,238,245,243,241,245,254,253,254,257,258,266,269,273,276,281,288,286,291,298,301,305,306,303,299,295,290,286,282,280,277,273,268,264,261,263,262,262,269,270,269,270,280,292,295,308,315,315,313,310,306,300,297,295,298,301,298,302,307,303,297,294,291,287,283,282,279,275,273,270,268,267,263,265,267,264,261,260,265,266,263,263,260,264,268,267,270,270,273,279,278,278,285,288,287,288,287,286,283,281,280,275,271,267,263,268,271,269,271,270,267,270,267,264,263,262,261,257,253,250,247,248,249,245,248,248,248,249,247,246,245,242,243,242,239,235,233,230,231,235,232,232,232,229,226,224,222,219,216,213,210,207,206,203,203,204,205,204,202,205,207,205,203,199,197,197,196,194,198,209,208,209,210,211,211,207,204,202,199,199,198,196,194,191,189,187,186,185,183,180,178,177,175,173,171,169,168,166,165,162,160,158,156,156,154,153,154,156,156,156,160,164,162,165,166,165,164,163,165,170,172,171,170,168,171,174,174,173,186,206,207,208,219,236,249,252,264,271,269,290,303,311,319,321,320,317,315,319,316,314,319,340,387,414,418,436,436,430,431,445,455,451,449,446,448,466,473,466,470,483,478,471,477,519,550,548,541,547,559,552,556,557,566,564,576,570,566,561,564,567,571,562,555,549,541,534,535,538,568,576,566,563,569,565,562,560,554,551,558,561,551,554,559,554,545,547,546,542,547,548,540,534,525,515,504,498,495,490,487,489,485,476,471,473,478,483,480,482,484,482,475,466,458,451,446,440,436,431,435,441,442,440,442,437,430,425,419,417,420,414,407,401,394,387,382,379,373,370,366,361,355,350,345,341,340,340,340,343,347,346,342,338,336,334,330,325,323,322,317,314,312,308,309,308,305,304,300,296,293,291,287,284,285,286,284,281,278,275,276,277,276,281,280,277,273,269,266,265,262,259,256,252,249,246,243,242,244,246,243,242,244,243,239,236,234,232,231,228,225,224,221,219,218,215,212,210,209,209,207,204,203,202,200,200,203,207,208,206,212,219,222,223,224,225,227,224,221,220,219,217,214,211,209,206,205,203,201,200,200,199,199,199,199,197,194,193,195,201,209,214,212,213,215,216,217,216,214,211,208,205,202,202,200,200,204,208,208,206,203,200,196,195,192,189,187,185,182,180,180,177,176,174,177,179,178,177,178,176,175,175,176,175,173,171,169,168,166,166,164,162,163,167,171,173,173,177,177,176,173,171,170,169,168,169,171,172,172,170,168,168,165,165,163,160,160,158,156,155,153,151,149,149,148,151,151,151,149,148,151,155,158,156,157,161,164,162,160,159,158,158,156,153,152,151,149,148,148,147,146,145,146,144,142,143,145,150,153,155,157,156,156,157,157,159,158,158,158,158,156,154,154,152,153,155,157,161,161,159,149,148,149,148,148,146,145,146,147,148,148,147,145,145,144,143,143,142,140,139,141,142
26,27,27,26,26,26,26,27,27,28,27,27,27,27,27,27,27,27,28,27,27,27,27,27,27,27,28,27,27,27,27,27,27,27,27,27,26,26,27,27,27,27,27,27,27,27,27,28,28,28,28,27,27,27,27,27,27,27,27,27,27,28,27,28,27,27,27,27,27,27,27,26,27,27,27,27,27,27,26,27,27,27,26,27,27,26,26,27,27,27,27,26,26,27,26,27,27,26,26,26,28,27,27,28,27,27,26,27,27,27,27,26,26,26,27,27,27,27,27,26,27,26,26,26,26,25,25,27,27,26,26,26,26,26,26,26,25,26,26,26,26,26,27,26,26,26,25,25,26,25,25,25,25,25,26,25,25,25,25,26,27,27,27,27,28,28,28,29,29,29,29,28,28,28,28,28,28,28,28,28,28,29,29,30,28,29,29,30,31,31,31,31,31,32,33,32,33,33,32,33,32,32,32,31,31,31,31,33,32,31,32,31,32,32,35,35,37,38,38,39,38,37,38,37,37,36,37,37,36,35,35,35,34,35,34,34,33,33,32,35,35,34,34,34,34,33,34,37,38,38,39,38,38,39,38,38,38,38,39,39,38,38,37,36,36,36,37,37,37,37,36,36,35,36,36,35,35,34,35,34,34,34,33,33,32,34,37,37,37,38,39,38,38,37,38,39,39,38,37,37,36,37,39,39,40,40,41,41,41,41,39,39,39,38,39,38,38,37,37,37,37,37,36,36,36,36,35,36,35,35,35,34,34,34,35,34,35,38,38,38,40,42,42,44,46,45,44,44,44,43,44,43,43,42,42,42,41,41,41,40,40,40,40,40,40,39,38,38,39,38,37,37,37,37,39,39,40,44,48,49,48,49,49,49,50,53,55,55,63,74,78,79,90,100,102,102,106,109,110,117,129,139,142,140,143,150,158,158,165,168,171,168,167,168,165,163,160,159,162,165,166,163,160,158,157,157,158,157,158,162,160,159,160,159,157,163,173,178,178,174,173,169,166,164,165,167,166,163,161,160,158,155,154,151,149,146,144,143,148,159,171,181,187,189,187,190,191,189,192,192,193,199,203,202,199,201,212,225,241,256,264,261,262,261,256,253,250,254,271,293,312,332,335,334,340,340,339,342,348,348,342,341,339,360,407,455,486,485,487,483,479,492,540,576,577,573,597,629,626,619,620,652,718,791,870,896,896,912,935,933,924,910,915,920,907,904,930,946,931,919,901,900,905,895,908,912,899,896,889,877,870,870,871,868,858,848,837,821,804,788,772,755,742,732,719,706,691,685,697,705,695,691,683,675,667,657,656,658,655,644,632,622,613,609,600,596,607,623,620,610,621,631,630,628,627,628,629,621,608,596,587,577,566,557,548,539,528,518,508,504,499,492,484,474,464,459,462,464,455,448,440,432,432,429,423,432,431,429,440,450,447,438,432,424,418,411,407,405,402,400,394,385,379,376,370,367,369,367,369,366,366,364,358,352,348,343,336,331,327,322,319,323,325,318,314,315,319,318,313,310,305,302,297,292,287,282,277,275,272,266,263,257,252,250,244,239,236,239,248,250,245,242,242,240,236,234,233,230,226,221,217,214,209,205,201,198,196,194,190,187,183,180,176,174,171,169,167,168,169,168,166,163,160,158,157,154,151,152,151,149,148,146,148,145,144,144,143,141,139,136,135,137,137,134,135,135,133,131,130,129,127,125,123,121,119,117,116,114,111,110,109,107,105,103,102,100,99,98,96,95,93,91,89,88,87,86,84,83,82,80,79,79,77,76,75,74,73,71,71,70,69,68,67,67,67,68,70,69,69,70,70,70,70,71,71,69,69,68,67,67,67,65,65,63,63,63,62,62,60,60,59,58,58,57,56,58,57,56,57,57,56,57,59,58,58,57,58,57,58,56,55,56,55,55,55,54,54,55,54,53,53,52,51,51,51,50,49,49,48,48,47,47,46,45,45,44,45,45,46,45,44,44,44,44,44,43,43,43,42,42,42,41,41,40,40,40,39,39,39,40,40,41,40,39,39,40,40,39,39,39,39,39,38,38,39,39,38,38,38,38,38,39,38,38,38,38,37,39,37,38,37,37,37,37,36,36,36,36,38,38,38,38,38,37,38,37,37,38,37,37,37,36,36,36,36,35,35,35,35,35,37,35,35,36,36,36,36,36,36,36,36,36,36,37,38,37,37,37,38,37,37,37,37,36,36,36,36,27,27,27,27,26,27,27,27,27,26,26,26,26,27,26,27,26,27,27,27,27,27,27,26
144,145,145,144,141,141,140,140,139,138,136,136,136,139,139,140,140,137,137,136,136,136,135,134,134,134,136,137,137,137,136,135,135,136,136,136,135,134,136,137,136,136,135,134,133,133,133,135,135,134,133,133,132,134,135,135,135,134,133,135,135,136,136,136,137,140,142,144,145,144,144,142,142,143,144,144,143,142,143,146,147,149,149,150,149,148,148,149,149,149,148,148,149,151,152,153,155,153,153,154,155,155,154,153,153,154,154,155,155,156,155,152,153,153,155,154,152,150,151,152,154,155,156,157,155,154,155,156,157,158,157,158,159,160,160,158,156,154,153,154,155,156,156,154,153,157,159,160,163,168,168,170,169,169,169,167,165,164,165,164,164,165,165,165,165,167,175,185,186,187,186,187,190,188,187,185,185,183,180,180,179,179,179,178,180,181,181,184,185,185,184,185,188,194,193,191,191,189,190,190,187,187,190,192,192,195,200,206,211,222,226,228,228,235,243,255,257,264,269,274,272,272,273,272,269,267,269,270,266,265,264,265,273,287,299,299,299,298,309,314,314,312,315,312,312,309,304,302,302,303,310,316,322,319,318,319,319,325,328,339,339,338,344,351,351,363,375,387,386,387,382,382,386,385,394,405,405,410,403,400,395,389,385,383,380,374,368,366,368,364,358,355,357,358,360,363,375,390,397,396,400,404,401,397,392,394,389,387,381,391,401,395,390,388,385,379,372,365,361,362,365,369,365,359,354,350,347,344,346,341,335,331,330,329,327,328,327,324,320,320,320,318,315,311,306,305,308,308,311,315,316,311,306,301,297,293,289,285,286,289,286,283,282,286,286,285,286,293,301,302,301,301,297,294,295,291,289,287,283,280,279,283,291,296,298,293,289,284,280,277,272,268,268,267,264,259,256,254,250,254,261,267,279,296,300,320,329,330,329,322,318,313,311,314,316,314,310,306,304,305,302,304,309,307,308,315,316,317,318,313,312,314,321,326,321,317,316,313,313,311,311,307,302,298,300,297,295,291,287,283,279,276,279,288,284,282,279,277,272,269,265,261,260,260,258,258,261,258,258,255,254,254,255,254,254,251,251,247,243,239,235,232,230,226,224,222,218,217,220,225,231,232,237,234,231,228,226,227,238,246,247,247,256,265,264,267,271,270,267,263,262,260,269,290,295,306,316,320,321,317,325,345,365,369,384,387,387,394,392,388,384,382,378,375,378,372,371,369,365,363,357,356,367,386,395,398,413,426,427,425,426,424,421,419,413,408,407,404,401,400,398,394,393,392,389,388,386,382,378,380,373,368,365,361,357,354,353,350,347,345,340,336,330,325,321,323,323,318,314,313,314,315,314,312,311,308,304,300,295,291,290,293,294,293,294,294,293,301,309,306,304,305,319,331,330,330,328,327,339,358,366,363,358,376,401,418,420,423,433,434,430,428,421,419,416,420,421,417,412,408,405,410,422,442,445,477,496,493,498,494,505,519,520,515,509,503,497,511,529,525,518,516,508,504,503,502,524,539,544,547,570,576,583,585,615,631,622,612,603,592,594,608,620,613,624,630,623,628,621,613,610,606,612,606,607,620,622,628,627,637,640,652,673,686,699,698,700,697,686,687,681,669,657,649,641,638,638,633,628,632,626,621,620,612,601,590,597,613,612,618,629,639,634,635,628,619,609,597,590,591,584,572,562,555,555,547,537,531,536,538,529,520,515,508,499,489,481,473,468,463,456,453,451,450,445,439,432,425,423,422,416,410,407,401,395,390,388,391,390,385,379,374,372,368,363,360,356,352,348,345,341,334,329,326,321,317,316,317,321,319,316,320,327,337,342,348,346,343,342,341,337,333,329,327,324,321,317,313,310,307,303,298,295,295,295,299,302,308,320,325,323,323,323,324,323,318,317,315,312,309,305,302,300,296,294,292,289,286,284,280,277,276,276,276,274,272,270,267,264,261,259,259,256,254,254,260,271,274,273,270,268,263,261,258,255,253,249,246,246,245,242,239,236,234,231,229,228,227,225,222,219,219,221,221,220,217,215,214,215,214,218,220,217,215,214,213,211,211,213,211,210,213,218,217,214,211,208,207,206,209,213,213,210,209,208,208,211,210,207,204,202,199,197,195,194,193,191,189,186,187,188,188,187,185,189,197,204,209,208,209,214,213,210,208,206,204,201,201,201,200,197,196,193,191,190,191,191,190,187,186,183,183,183,185,187,189,192,196,193,196,201,200,199,199,198,198,199,203,210,217,220,222,221,219,217,216,215,216,212,209,209
26,26,27,28,28,27,27,27,26,27,29,28,28,27,28,29,29,29,28,28,28,29,29,29,29,28,29,29,30,29,29,29,28,29,30,30,30,30,30,30,30,31,31,30,30,29,29,29,29,29,28,30,28,29,29,30,30,30,29,29,28,29,28,28,29,28,28,27,29,28,28,28,28,27,27,28,27,27,27,26,26,27,27,26,27,26,26,26,26,25,25,25,25,23,24,25,26,26,27,27,26,26,26,26,26,27,26,26,27,28,28,30,29,29,29,29,28,28,27,28,27,27,28,28,28,28,28,27,28,28,30,30,31,30,30,31,30,31,30,30,30,30,30,30,29,29,29,29,30,30,30,30,29,29,28,28,28,29,28,28,28,28,29,29,27,28,28,26,27,26,27,27,28,27,28,28,29,30,31,31,31,30,31,31,30,29,30,29,30,30,31,34,34,36,36,36,35,35,34,36,39,42,44,45,48,48,48,48,48,46,46,45,45,45,44,45,44,44,44,45,45,46,45,44,44,44,44,44,44,45,45,45,47,46,45,47,47,47,46,46,46,45,48,47,47,46,45,47,45,45,45,44,45,48,50,52,53,56,58,58,58,56,56,55,56,56,56,55,55,56,55,54,54,53,53,53,52,51,51,51,51,50,49,49,48,47,47,47,46,46,45,46,46,45,45,45,44,44,43,42,41,45,50,50,50,52,54,54,53,52,51,51,51,51,49,49,50,50,50,55,58,61,63,63,63,61,60,60,64,68,69,68,68,70,77,88,94,94,96,98,98,97,99,97,96,97,98,97,100,106,112,119,122,121,122,125,127,128,129,130,138,141,140,144,153,164,174,184,194,205,211,208,206,208,206,205,207,213,221,225,225,220,219,222,226,228,231,233,231,229,226,226,233,237,234,235,235,235,241,255,295,355,410,442,449,445,467,499,507,499,500,509,522,529,529,526,517,507,499,490,489,496,510,519,551,584,604,608,600,599,610,623,620,642,723,845,960,982,981,981,980,980,981,980,981,980,981,981,981,981,982,982,981,981,981,981,981,982,982,981,981,981,981,982,982,982,981,980,980,981,981,982,981,982,981,981,981,982,981,982,982,981,981,981,981,982,982,981,982,981,981,981,981,981,981,982,982,982,982,981,981,981,980,981,982,981,981,981,981,981,981,981,981,981,981,981,981,981,981,981,982,982,981,971,961,954,944,939,926,909,894,877,862,848,849,858,860,851,851,852,850,843,833,826,818,808,797,786,772,756,742,731,722,711,699,689,681,670,658,650,652,648,640,649,656,652,641,628,622,620,616,612,603,591,581,570,569,574,574,564,558,548,540,531,523,517,509,501,491,484,480,474,465,456,449,448,440,435,427,426,432,426,419,417,410,402,394,388,383,381,378,373,366,362,358,354,354,349,349,345,342,344,347,342,335,330,333,336,332,327,323,320,316,312,307,302,296,292,287,283,280,277,273,269,263,258,253,248,244,239,235,236,237,236,234,232,226,223,219,215,212,211,214,212,210,214,216,216,213,208,205,202,201,199,199,195,192,188,185,183,182,181,179,176,174,170,166,164,160,158,155,153,150,147,145,143,140,138,135,133,130,128,127,127,125,123,123,121,120,117,115,114,114,113,110,108,107,105,103,102,99,99,97,96,95,93,92,90,90,88,86,84,83,82,82,84,83,83,84,87,85,85,83,82,83,82,81,80,79,78,78,76,75,74,74,74,75,75,75,75,74,73,72,71,69,69,68,67,66,66,65,65,64,64,63,62,62,61,61,60,60,59,59,57,57,57,56,56,55,55,54,54,53,53,52,52,52,51,51,50,49,48,48,48,49,48,48,47,46,46,46,46,46,46,45,46,45,45,44,46,46,45,44,45,44,43,44,43,43,43,43,43,42,41,41,41,41,41,41,41,41,40,40,40,40,39,40,38,38,38,38,38,38,38,37,38,37,37,37,36,36,37,36,36,35,36,37,37,36,37,36,37,37,36,36,36,37,36,36,36,36,37,36,37,36,36,35,36,37,37,38,39,39,40,39,40,39,40,39,38,38,37,38,37,37,37,37,36,36,36,35,37,36,36,35,35,35,36,36,36,39,40,40,40,40,40,39,39,39,39,40,40,39,40,42,43,43,44,49,51,50,52,51,50,51,53,54,54,53,53,53,53,53,52,51,51,50,50,50,49,50,48,48,48,48,47,47,46,46,46,45,45,45,45,43,28,28,28,28,28,28,29,28,28,28,28,28,28,27,27,28,27,27,26,27,27,27,28,28,28,28
208,205,207,205,206,205,207,204,201,199,197,197,196,199,204,206,209,207,207,210,209,209,210,208,207,208,214,215,215,219,219,220,220,218,216,216,215,213,212,209,207,206,203,207,213,220,220,222,223,222,229,237,241,240,236,234,231,229,232,235,233,231,237,246,246,244,241,241,243,241,237,234,236,236,234,233,231,232,232,235,234,233,229,226,224,221,220,217,213,212,209,206,205,203,203,210,218,218,216,213,210,207,204,202,202,199,199,200,199,202,202,214,223,222,220,226,231,232,229,233,239,247,252,252,249,247,246,244,244,241,240,237,234,230,231,230,229,228,227,224,224,228,228,226,224,221,223,229,235,236,233,230,228,228,227,227,226,223,220,219,221,221,221,222,224,224,225,229,235,234,236,235,233,234,236,234,238,244,243,242,241,241,238,236,235,242,242,242,240,242,242,238,239,242,240,244,245,247,244,242,240,241,241,240,238,242,245,246,247,246,243,242,241,241,248,249,249,250,249,248,248,250,249,249,248,249,247,250,250,248,245,245,244,241,240,242,241,242,238,235,232,235,240,240,240,240,238,240,245,244,247,253,255,254,254,252,261,265,262,259,258,255,256,261,266,265,260,257,258,262,266,264,263,261,258,256,256,256,255,261,264,262,266,264,260,264,265,261,257,255,252,249,245,245,243,243,245,244,244,251,250,251,257,256,254,256,257,254,251,258,264,264,267,265,264,261,260,258,257,254,251,248,244,242,240,240,245,243,240,240,244,246,245,249,252,254,252,250,249,247,245,247,248,246,245,242,243,245,244,250,254,254,250,248,250,256,260,261,264,269,268,266,266,268,269,272,274,286,296,292,287,289,287,291,311,320,316,322,338,357,365,364,360,356,351,352,353,350,353,363,371,368,370,374,374,372,369,373,374,377,385,383,379,374,384,398,396,403,407,401,394,391,389,390,391,388,383,376,369,364,358,356,352,354,367,373,372,372,368,362,358,354,351,344,344,361,373,377,373,376,370,368,369,366,377,388,384,379,393,416,423,423,446,450,448,449,460,483,507,503,518,539,545,545,540,530,525,516,507,507,509,509,503,506,504,496,496,492,490,496,496,492,485,482,487,496,500,504,505,511,516,517,512,504,500,493,495,504,511,510,517,519,516,508,505,498,496,496,492,483,475,469,462,459,457,453,447,441,435,435,434,427,425,423,420,414,407,401,393,386,380,373,369,364,362,361,358,354,355,350,344,338,333,329,323,322,317,312,307,301,296,292,294,291,288,284,280,276,272,269,266,263,259,255,259,267,269,274,273,270,267,270,281,287,289,294,294,300,309,316,325,320,318,323,321,319,315,325,328,328,335,352,368,372,374,388,396,393,392,387,389,401,413,426,426,433,439,439,452,478,489,513,539,540,555,565,559,564,573,573,590,591,585,592,588,582,595,634,660,658,649,640,635,635,627,638,642,649,654,650,646,641,637,635,629,639,659,674,665,654,650,643,632,626,624,614,611,611,603,605,608,610,603,603,599,592,595,610,606,604,620,623,632,624,616,610,610,616,622,628,628,641,636,624,612,604,598,592,586,579,572,564,555,548,546,542,535,534,528,521,515,509,502,494,494,497,491,490,504,519,520,521,517,507,504,501,495,493,488,490,490,488,485,480,473,466,458,451,446,455,484,509,506,527,545,550,544,535,526,517,511,503,496,491,485,476,468,460,452,445,437,430,424,421,416,410,403,396,395,397,393,391,394,397,400,400,405,406,400,393,388,384,380,377,372,366,364,360,355,351,347,343,339,334,329,325,322,320,319,319,317,316,315,312,309,304,300,298,297,293,291,287,286,283,281,278,279,284,288,286,283,282,279,276,273,269,265,262,258,255,252,249,251,256,258,254,250,252,249,247,253,255,253,253,251,247,244,241,239,236,236,242,248,249,247,251,249,246,245,242,240,238,234,231,228,225,221,218,218,217,216,220,224,224,224,230,230,226,224,222,217,215,215,218,220,217,214,212,211,211,211,210,212,210,208,207,204,204,208,212,210,208,209,210,206,204,202,202,201,198,197,193,192,190,190,187,186,184,183,186,188,186,184,182,182,181,180,179,176,175,173,171,171,170,170,167,167,168,165,165,168,166,165,163,166,165,163,162,162,161,161,164,162,160,159,158,159,160,160,158,155,155,153,155,160,169,177,180,180,189,191,190,187,185,183,181,179,177,177,176,175,173,171,170,167,189,187,185,183,181,179,176,178,188,199,207,208,214,222,221,223,224,220,217,215,212,209,206,207,211,212
28,28,28,28,30,30,31,31,30,31,32,31,31,30,30,31,30,30,29,29,29,30,30,30,30,30,31,30,30,30,30,29,29,29,29,28,28,28,28,28,28,28,28,28,28,28,28,27,27,27,27,27,27,27,27,26,26,27,26,26,25,25,25,26,26,25,25,25,26,26,26,26,25,25,25,26,26,26,26,25,25,25,25,26,26,26,26,26,27,27,26,27,26,27,27,27,27,27,26,27,26,26,26,27,28,28,27,28,28,28,28,28,29,29,28,28,28,30,30,29,29,29,29,30,30,29,29,28,29,29,29,28,28,28,28,27,28,28,28,29,27,28,28,28,30,30,29,31,31,30,31,31,31,30,31,32,32,32,32,32,31,31,30,31,31,30,30,30,30,30,30,30,29,29,29,29,29,30,30,29,28,29,29,30,31,31,31,30,31,33,35,34,33,33,33,32,32,32,32,31,31,31,30,30,30,30,30,29,28,29,30,29,28,29,28,29,29,29,29,30,31,31,31,31,31,30,30,30,30,31,30,30,31,30,30,29,29,29,30,30,30,32,30,30,32,31,33,35,35,36,38,38,39,41,45,46,46,46,46,45,45,44,43,42,42,42,42,41,41,41,40,40,40,39,39,38,37,38,38,38,39,39,39,41,41,39,41,44,45,45,45,46,45,46,44,43,43,44,43,42,42,42,41,42,44,47,48,48,47,50,50,51,52,52,53,51,52,50,50,49,48,49,48,47,50,54,56,57,56,55,55,57,57,56,56,59,64,67,66,66,68,66,67,71,70,69,69,69,70,70,69,72,78,80,79,79,81,82,82,84,88,88,87,93,97,102,104,103,109,121,137,148,153,152,151,154,156,158,160,166,171,171,169,181,197,222,254,283,302,306,302,309,324,323,343,374,395,396,398,417,447,460,455,464,474,505,556,602,638,659,654,669,687,692,685,707,743,770,792,789,790,783,773,767,771,830,910,982,982,981,981,981,981,981,981,981,981,981,982,982,982,981,981,981,981,982,981,981,981,981,981,982,982,982,981,982,981,981,982,982,981,981,981,981,982,981,981,981,981,981,982,982,981,982,982,981,981,981,981,982,981,981,981,981,981,981,981,981,980,981,981,980,981,981,981,981,982,982,982,981,981,981,981,981,981,981,982,981,981,980,981,981,982,982,982,982,981,981,981,981,981,981,981,978,969,954,949,951,946,937,925,909,891,873,858,847,840,830,817,801,790,775,761,755,748,739,729,714,699,684,671,660,651,646,640,632,622,611,601,591,584,578,571,560,550,541,539,543,543,535,524,515,504,494,487,487,487,493,492,483,474,467,460,453,445,436,430,427,421,413,406,400,393,386,380,381,381,378,372,364,357,356,354,350,344,340,338,332,325,320,316,313,311,310,306,303,302,301,295,290,286,283,280,275,272,268,270,267,263,258,253,251,250,246,242,239,236,233,228,224,220,216,211,211,212,211,213,211,207,204,201,202,204,201,198,196,193,191,188,185,183,180,177,176,173,170,169,171,170,169,167,165,163,160,158,156,153,152,151,148,146,144,142,141,138,135,133,131,130,128,127,124,123,120,118,116,114,112,111,109,108,106,104,103,101,99,97,96,95,94,93,92,90,89,89,87,86,84,84,82,82,81,79,78,77,76,76,76,75,74,73,72,71,71,69,68,67,66,65,64,63,63,63,66,67,66,65,65,63,62,62,61,60,60,59,58,58,58,57,57,55,55,56,55,55,54,56,57,55,55,55,54,54,54,53,52,51,50,50,49,48,48,48,48,47,48,47,47,46,46,46,47,48,48,49,49,49,48,49,49,48,47,47,47,47,46,46,46,46,46,46,45,45,45,46,45,44,44,43,43,43,43,42,43,42,43,42,42,40,41,40,40,40,40,39,39,39,39,40,39,38,37,37,37,38,39,40,41,41,40,40,40,40,40,39,40,41,40,42,42,42,42,43,42,41,42,41,41,42,41,40,40,40,40,39,39,38,38,38,37,37,37,37,37,36,36,35,35,36,36,35,34,35,34,35,34,35,35,34,34,34,34,34,33,34,34,36,36,37,37,36,36,36,37,37,37,36,36,36,36,36,35,35,35,34,35,34,35,34,35,34,34,35,35,36,36,36,35,35,35,35,35,34,34,34,34,34,34,34,34,33,33,33,33,33,33,33,32,34,35,36,35,35,35,36,36,38,39,38,38,37,37,38,25,25,25,26,25,26,26,26,27,25,26,26,26,27,26,26,27,28,28,29,28,28,27,27,28,29,28,29
211,210,210,208,207,206,215,220,219,221,220,217,217,221,221,219,222,221,218,220,219,218,214,212,211,210,208,204,202,201,202,201,200,204,206,205,204,203,201,199,197,196,199,203,208,214,220,220,218,219,222,221,219,216,213,211,208,206,205,203,203,202,202,202,201,198,198,202,201,206,207,208,211,211,209,207,208,208,208,207,206,205,205,206,206,205,202,199,198,199,201,199,197,195,193,191,191,190,190,189,188,191,192,204,211,210,212,211,208,205,203,202,205,207,206,204,203,201,200,199,195,193,191,190,195,200,204,206,205,203,205,203,200,203,204,203,207,207,209,208,208,210,209,209,213,213,211,208,206,206,205,211,214,214,217,214,214,224,228,230,233,232,233,234,230,228,230,230,232,230,227,224,223,220,218,222,229,236,234,233,233,232,232,242,246,246,256,260,262,272,276,274,277,275,272,269,267,263,261,258,257,258,267,272,271,267,263,261,257,254,250,249,246,242,240,236,233,230,227,225,229,231,229,227,228,227,227,227,231,229,226,227,238,250,251,255,256,254,255,256,251,254,256,255,255,255,258,258,261,270,273,270,268,264,260,260,264,270,272,270,265,265,269,268,267,263,261,262,260,256,254,252,250,250,248,245,242,239,237,236,234,236,239,240,242,242,249,250,248,246,248,255,259,260,269,275,276,276,280,279,278,274,278,293,304,307,318,321,319,314,311,308,303,298,294,292,292,295,292,288,288,286,282,280,278,279,278,274,272,269,264,265,270,273,272,274,274,272,280,286,284,290,287,284,280,275,274,271,271,273,277,281,278,277,274,271,267,272,276,272,269,271,277,280,279,275,273,272,268,269,268,265,261,257,254,253,251,250,249,250,255,258,258,256,252,249,250,249,247,247,246,244,246,247,243,244,245,246,246,254,253,250,246,247,252,255,256,254,254,257,256,258,257,257,256,262,271,272,272,279,289,289,290,292,290,296,304,312,318,347,366,366,381,396,396,403,428,457,481,489,495,527,536,526,522,515,507,507,500,493,486,480,478,475,473,471,479,487,483,479,481,486,484,505,522,529,528,537,534,540,540,533,524,520,511,505,500,497,500,493,488,486,481,477,475,486,499,496,496,493,496,499,494,500,504,502,493,490,483,476,472,469,474,479,478,474,469,471,481,481,476,469,463,456,448,440,437,432,428,421,416,413,405,397,391,385,378,372,365,360,355,348,342,337,331,327,321,316,311,308,309,313,311,308,304,300,296,296,296,293,287,283,278,276,275,273,270,265,262,257,259,262,264,263,260,257,262,265,263,266,270,272,281,288,288,303,329,334,339,341,338,337,339,348,355,360,357,361,363,359,374,397,416,434,429,426,432,425,422,428,439,444,442,441,447,451,445,443,446,459,467,462,459,457,452,445,441,438,452,468,471,468,472,491,491,485,487,492,501,500,496,505,502,493,487,492,501,520,542,535,530,522,518,515,510,502,498,505,501,517,527,525,520,509,518,530,532,534,529,523,528,531,544,549,547,554,554,550,543,546,562,591,592,604,626,620,620,612,607,598,596,594,585,576,579,588,585,598,593,585,576,573,581,585,579,583,592,592,586,592,585,609,638,635,626,625,650,662,652,649,643,632,626,620,610,601,600,596,591,600,599,606,637,647,643,654,654,646,636,630,623,612,601,591,581,577,568,559,554,547,539,531,522,514,505,497,490,488,489,488,482,475,466,460,451,445,437,430,426,431,428,432,430,423,417,410,405,400,401,405,403,401,404,407,403,402,403,403,402,404,419,428,427,431,425,419,420,423,422,423,428,424,420,416,411,404,398,392,396,401,399,392,388,387,384,382,376,373,369,364,358,352,348,343,340,336,338,343,342,337,334,331,328,324,320,314,311,309,308,304,300,298,296,293,290,287,282,278,276,274,272,269,267,269,271,270,270,272,270,268,267,264,260,256,254,253,250,248,245,242,239,239,241,245,245,243,239,236,235,233,230,227,224,225,224,232,245,256,255,252,251,255,259,257,253,250,246,245,243,239,241,243,244,240,237,233,231,231,232,238,243,242,242,250,252,248,245,243,241,237,236,232,233,233,232,229,226,223,221,219,217,216,214,218,224,226,223,220,218,216,212,214,219,218,220,223,222,219,216,213,211,209,207,203,200,198,196,195,196,194,193,192,192,190,190,190,197,204,205,209,210,212,212,209,206,204,201,199,196,194,192,190,189,134,140,143,142,142,145,151,153,152,150,149,147,146,145,144,143,144,142,143,143,142,143,143,142,141,140,139,139
27,28,28,27,28,28,28,27,28,27,27,28,27,27,27,27,27,27,26,26,26,27,26,26,27,25,26,26,25,25,26,25,26,25,25,25,25,25,25,25,26,26,26,26,27,28,27,27,27,27,28,27,27,27,27,27,26,26,26,26,26,27,27,27,27,26,26,26,26,25,26,25,25,25,25,25,25,25,24,24,24,24,24,25,24,24,24,25,25,25,25,25,24,25,25,24,25,25,25,25,25,24,25,24,24,24,23,24,25,24,26,27,26,26,27,26,27,26,27,27,26,26,26,26,26,25,26,26,25,26,25,26,26,26,27,26,26,25,26,27,26,26,26,26,26,26,27,26,26,26,26,26,27,26,27,26,26,27,26,26,27,27,27,27,27,27,26,27,27,27,27,28,28,27,27,28,30,30,31,31,30,30,31,30,30,30,30,30,29,29,29,29,28,29,28,28,28,28,28,28,28,28,28,26,27,27,26,26,26,26,27,27,27,27,28,27,27,27,27,28,28,28,28,27,28,29,31,32,32,33,35,35,35,35,36,35,37,38,39,39,38,38,38,38,38,38,38,38,37,37,38,39,39,38,38,39,39,39,38,41,44,43,43,44,43,43,43,44,44,44,45,44,45,45,44,44,44,45,45,44,44,44,45,44,43,43,43,43,42,44,46,47,46,48,48,47,48,49,49,48,48,49,48,49,51,51,51,51,51,51,52,51,53,55,55,59,63,66,68,67,67,66,65,65,66,69,73,80,84,84,83,83,86,85,85,85,87,85,85,84,87,90,91,90,88,87,87,87,87,87,95,106,120,136,151,168,189,210,231,257,285,310,325,335,337,340,355,362,358,360,368,391,430,458,479,520,558,575,572,563,569,583,623,662,686,682,706,725,731,796,864,897,891,919,950,950,981,981,982,981,981,981,981,981,981,982,981,981,981,982,981,982,980,981,980,982,982,981,982,981,981,981,980,980,981,981,981,980,981,981,981,982,982,981,981,981,981,981,981,981,981,981,982,981,981,981,982,982,982,982,981,981,981,981,981,981,981,981,980,981,981,981,980,981,981,981,981,981,981,982,981,981,981,981,981,981,981,982,982,982,981,981,981,981,981,981,981,981,981,981,981,981,981,980,981,981,981,981,981,981,977,961,947,942,934,925,912,904,893,880,869,855,842,835,825,810,803,792,777,768,756,756,760,749,737,727,718,715,711,699,686,674,667,661,649,651,655,654,650,642,638,643,638,625,611,600,596,600,610,610,601,594,594,586,580,573,563,554,542,531,522,514,512,510,500,490,483,475,467,458,450,442,433,425,420,418,415,411,404,396,389,382,375,371,365,358,350,344,338,334,328,323,317,314,313,309,305,299,293,288,285,281,276,270,265,261,259,256,254,250,245,241,238,234,230,226,222,218,214,211,208,205,202,197,194,192,188,186,183,179,177,174,170,167,164,163,161,157,156,153,150,148,145,144,142,140,138,136,135,133,130,128,127,125,124,122,119,117,115,114,113,111,112,111,112,116,118,118,127,131,131,138,141,143,145,145,142,140,137,137,143,144,144,142,140,138,135,135,135,132,129,127,125,123,121,120,120,118,117,116,116,115,114,112,115,121,121,121,126,126,125,124,122,120,118,116,114,112,110,108,106,104,102,101,100,101,99,96,95,93,93,93,91,90,88,86,86,85,84,83,82,81,80,79,78,77,76,76,75,74,73,72,71,70,69,68,67,66,65,64,65,65,66,66,65,64,64,63,63,62,61,61,61,60,59,60,59,58,59,57,57,58,59,57,58,60,59,60,61,62,62,62,61,60,60,60,59,59,59,58,57,56,56,55,55,54,54,54,53,53,53,53,52,51,51,50,49,49,52,50,49,51,51,51,51,51,50,49,49,49,49,49,48,48,49,48,47,47,47,48,48,47,49,50,50,49,48,49,48,47,48,47,47,48,49,48,48,50,53,54,55,54,53,53,53,52,51,51,50,50,50,49,49,48,48,48,49,48,47,47,46,46,46,47,47,47,46,46,47,45,45,44,44,43,44,43,43,43,42,42,43,43,42,43,45,44,43,42,43,44,45,45,44,44,44,45,44,43,46,46,47,47,47,47,47,46,47,47,46,46,46,46,47,45,44,44,44,45,45,45,45,46,46,47,47,47,46,46,45,46,45,45,44,44,44,43,43,42,42,42,41,41,41,42,40,41,41,41,41,41,41,33,33,34,34,34,33,33,34,34,33,33,33,33,32,32,33,32,32,32,33,32,32,31,31,30,31,31,30,31,31
138,139,138,137,135,134,133,133,136,139,140,138,138,137,136,134,133,132,130,129,130,131,130,129,128,128,127,126,125,124,123,122,120,120,120,120,120,118,118,118,118,118,119,120,118,118,116,116,114,113,113,112,113,115,115,116,115,115,114,113,113,113,112,112,110,111,112,113,114,115,117,118,118,118,118,117,117,117,117,116,118,119,117,116,115,115,117,116,116,115,114,114,113,113,112,112,111,111,110,110,110,113,114,112,112,113,111,111,110,109,108,107,106,106,106,106,104,104,103,105,105,106,107,107,107,106,106,106,104,103,102,104,105,105,107,111,114,114,115,117,117,118,118,117,117,118,122,123,122,122,124,125,125,125,123,122,121,120,119,119,119,121,120,121,120,118,120,125,128,126,128,130,129,128,127,126,126,126,127,127,125,125,123,122,122,121,122,125,127,126,125,124,124,124,123,123,122,122,121,122,122,122,122,123,123,122,121,120,119,118,117,116,116,115,116,118,121,120,119,119,118,118,116,115,117,115,117,118,118,117,117,116,116,115,114,112,113,113,112,112,114,118,123,126,125,127,127,128,128,127,126,126,126,127,125,125,126,127,126,125,124,124,126,129,129,137,142,143,140,141,146,148,148,153,159,163,164,167,167,172,174,172,174,176,175,174,171,169,167,165,164,165,167,167,166,164,162,160,160,159,161,165,168,168,168,170,169,169,168,166,164,163,161,160,160,158,157,157,156,155,153,151,151,152,151,150,152,153,154,158,163,163,162,161,165,169,167,167,169,170,169,167,167,168,167,166,166,166,166,166,167,167,172,180,185,186,187,186,185,188,189,189,188,187,185,186,189,189,187,189,192,190,191,204,224,237,240,241,243,242,242,239,238,243,241,239,237,233,230,239,250,248,246,246,244,244,263,291,314,315,318,314,320,323,340,348,345,343,370,416,444,455,473,465,467,471,476,496,506,507,501,509,520,512,503,498,493,485,482,479,471,474,491,506,518,514,518,525,521,514,505,496,492,489,487,479,470,467,465,458,455,448,441,441,450,455,452,446,445,442,437,437,433,426,419,411,405,401,394,387,380,374,370,365,359,352,347,342,336,335,337,331,327,321,316,315,315,311,306,307,307,305,307,307,303,300,300,297,302,304,301,303,306,304,305,318,331,335,337,350,358,355,367,373,377,382,384,382,379,385,388,399,407,418,434,435,428,420,414,409,409,423,425,433,431,436,439,435,431,450,463,459,455,455,450,444,436,431,425,436,448,445,437,432,432,428,426,445,468,468,465,459,463,459,455,454,449,449,446,448,457,454,460,467,466,473,479,482,478,479,478,478,471,464,456,451,456,458,454,456,453,445,438,434,428,423,417,410,407,404,402,402,398,400,407,407,401,394,389,392,397,396,391,387,386,380,381,384,383,380,378,375,368,364,361,358,357,351,356,363,364,358,359,360,357,351,346,341,338,335,334,331,327,325,324,322,321,317,312,308,304,299,296,294,293,291,287,282,282,287,287,283,279,276,270,266,263,261,263,264,261,259,255,252,249,247,250,252,250,249,248,250,252,249,246,242,239,240,240,237,233,234,233,231,229,228,228,226,225,223,220,220,218,215,212,214,220,220,217,214,214,213,216,214,212,209,207,204,202,200,197,194,191,190,188,186,184,185,185,184,182,179,176,175,175,175,174,171,170,169,167,166,165,166,165,163,163,162,162,160,159,156,155,155,152,151,149,149,148,151,154,157,157,160,161,160,158,158,158,156,155,153,151,150,148,147,145,146,149,153,154,157,157,157,155,157,162,163,162,161,159,157,157,157,156,154,152,151,150,151,152,153,153,155,154,153,150,149,147,147,147,145,144,145,144,144,142,142,141,140,139,139,138,137,138,139,137,137,136,137,137,137,137,136,135,134,132,132,133,131,131,131,130,130,131,131,130,131,130,130,131,130,129,131,133,135,135,133,134,135,134,136,137,136,135,134,133,134,133,132,131,131,133,133,132,132,130,128,128,129,130,132,137,140,140,140,140,138,137,136,135,134,134,132,131,130,129,128,127,127,127,128,128,126,127,128,127,126,126,127,127,128,128,128,129,129,128,128,127,128,129,130,132,132,131,130,131,133,135,133,133,133,133,133,134,136,138,139,137,137,137,136,135,134,133,133,134,135,136,138,139,140,139,141,141,140,139,137,139,142,145,147,148,148,147,145,144,143,142,140,140,181,183,186,188,188,186,184,181,182,183,182,179,178,176,174,171,171,170,170,170,171,168,174,175,181,188,187,188,189,190
31,31,32,32,31,31,31,32,32,30,30,30,29,30,30,29,29,29,29,29,29,29,29,27,28,28,28,28,28,28,29,29,29,29,29,28,28,28,28,29,29,29,29,29,29,28,28,28,28,28,29,29,31,29,30,31,31,31,31,32,31,31,31,30,30,30,29,30,31,30,32,32,33,33,33,32,32,33,32,32,32,31,31,32,31,30,31,30,30,30,30,29,30,29,29,28,29,28,27,28,28,27,27,27,26,26,26,26,27,27,26,26,27,26,26,26,26,25,26,26,26,26,26,27,26,27,27,26,27,26,26,26,25,25,26,25,27,27,28,28,28,28,28,28,28,28,28,28,27,27,27,26,27,27,26,26,26,26,26,27,26,27,27,26,27,26,26,26,26,26,25,25,28,28,27,28,27,27,27,27,27,27,27,27,27,27,26,26,27,27,26,27,27,27,27,26,26,26,26,26,26,26,26,25,25,25,25,25,24,24,24,24,24,23,24,24,25,25,25,24,25,25,25,24,24,24,24,24,24,23,24,23,23,24,27,26,26,26,27,28,28,28,29,29,29,29,29,29,29,28,28,28,28,27,27,28,27,27,27,27,26,26,26,26,26,25,25,26,30,32,32,32,34,36,35,35,35,35,36,36,36,36,36,36,35,34,35,34,34,34,34,33,33,32,33,32,32,32,31,31,32,31,31,30,30,29,29,30,32,34,34,34,34,35,35,36,37,40,41,42,45,51,54,53,52,54,57,61,64,65,65,66,70,78,84,85,92,102,105,104,109,113,113,113,113,114,119,125,137,154,184,213,231,238,233,230,230,238,243,240,245,255,266,287,328,363,384,397,398,395,395,405,432,459,484,507,548,599,640,650,645,663,682,734,873,981,981,981,981,980,980,981,981,981,982,981,981,981,982,982,981,981,982,981,981,981,981,981,981,982,981,981,981,981,982,981,981,981,980,981,981,981,980,981,980,981,981,980,981,981,981,982,981,982,980,981,980,981,981,981,982,981,981,981,981,981,981,981,981,981,982,982,981,981,980,981,981,980,981,980,982,982,982,982,981,982,980,981,981,981,982,981,981,981,981,982,982,981,981,981,981,981,982,982,982,981,981,981,981,981,981,981,981,981,981,981,981,981,981,981,981,981,981,981,981,981,981,981,980,981,981,981,981,981,980,980,981,981,981,972,954,935,919,906,893,879,863,846,829,815,807,803,793,782,769,757,744,733,729,730,733,737,736,723,712,698,683,675,670,667,661,648,635,624,611,601,593,582,572,561,550,539,528,517,506,499,491,484,478,469,459,451,444,437,432,428,421,414,407,402,399,392,386,379,373,372,375,379,376,368,363,357,349,343,338,336,334,329,323,318,314,313,319,322,319,316,312,306,301,295,290,287,288,283,280,279,278,273,268,264,258,255,251,248,243,238,235,235,230,229,224,220,222,227,225,221,218,216,214,213,211,208,205,202,199,198,199,200,198,194,192,189,185,182,179,175,172,169,166,163,160,159,156,153,150,148,147,145,143,141,139,137,135,133,130,129,127,125,123,121,120,117,115,113,112,111,109,107,105,104,103,102,101,101,98,97,95,94,94,92,91,89,88,87,86,85,84,83,82,80,79,79,77,76,75,75,74,72,72,71,70,68,68,67,67,68,68,67,66,66,64,63,63,63,62,61,62,62,63,62,61,61,60,59,58,59,58,57,57,57,56,56,55,55,54,53,53,53,52,53,51,51,51,51,50,50,49,48,48,47,48,49,49,48,48,48,47,48,47,46,46,45,45,45,44,44,43,43,42,42,42,43,44,44,44,43,42,42,43,42,42,41,41,41,41,42,42,41,43,44,44,44,46,47,46,47,47,48,48,48,48,47,47,46,46,45,45,45,44,44,43,44,43,42,42,43,42,41,41,41,40,40,39,40,39,40,39,39,39,38,38,38,38,37,37,38,39,39,39,39,38,38,38,38,38,37,37,37,37,36,37,37,36,35,35,36,35,35,36,34,34,33,34,33,33,33,33,32,32,32,31,32,32,31,31,30,30,31,30,31,30,30,31,30,31,30,30,30,30,30,30,30,29,29,29,30,30,29,29,29,28,29,29,28,28,29,28,28,28,28,28,28,27,28,27,27,27,27,27,26,26,26,27,27,27,27,26,26,26,26,26,27,26,25,25,25,25,25,25,24,24,24,24,24,24,23,23,23,23,28,28,28,29,28,28,28,28,28,28,28,27,27,27,27,27,29,28,29,29,29,29,29,29,29,29,29,29,30,30,31,33
189,188,186,188,191,191,189,188,188,191,188,186,185,184,182,180,181,179,179,177,177,175,175,177,176,174,175,175,173,171,170,170,171,173,172,174,174,180,185,184,189,196,197,196,194,194,194,194,193,194,193,198,203,203,201,199,198,198,196,193,192,190,190,189,188,187,191,194,192,193,192,190,188,186,186,183,182,185,188,188,186,186,187,185,185,191,191,190,190,188,186,183,181,179,178,177,174,173,171,170,167,165,164,162,161,159,158,160,168,169,169,173,171,172,175,174,174,175,179,181,181,182,179,182,185,187,185,182,182,179,178,179,179,177,176,175,175,175,179,178,176,173,172,171,168,166,166,167,167,165,163,163,161,160,161,162,160,158,156,155,153,153,155,156,157,157,156,155,158,162,165,166,168,174,173,172,170,168,167,165,163,161,160,163,167,168,166,165,164,167,169,173,172,170,169,167,164,162,162,160,159,159,157,156,155,154,153,151,150,149,150,156,155,157,159,160,163,166,166,168,167,165,163,161,159,158,157,156,155,155,158,158,157,155,153,154,153,152,151,151,158,165,166,165,162,161,159,159,158,158,156,154,153,151,151,150,150,150,153,157,158,157,157,156,155,155,155,154,155,155,155,156,154,153,152,150,148,147,145,144,143,142,142,142,141,139,139,143,146,145,148,152,155,154,154,153,152,152,153,155,153,153,151,149,148,148,151,155,156,156,160,159,159,159,159,158,156,154,155,156,156,154,154,154,154,156,155,155,160,168,169,168,167,165,168,176,180,181,179,177,175,175,173,172,171,171,182,199,203,219,235,243,245,241,237,234,231,228,225,222,223,224,223,221,226,231,231,243,252,251,256,263,263,263,268,275,301,316,312,308,303,300,297,302,316,342,357,354,354,355,351,345,341,335,338,340,359,377,376,374,374,373,368,370,389,402,399,410,413,407,405,399,395,400,407,403,397,395,392,399,409,409,415,422,420,414,408,405,406,401,396,397,425,440,443,442,461,472,467,462,454,454,475,495,499,503,500,496,495,493,488,501,515,512,506,501,501,505,498,498,506,504,509,506,501,495,496,489,486,478,473,468,476,494,513,506,500,501,499,513,513,508,500,491,489,492,488,480,478,472,465,459,452,445,438,430,423,415,408,400,394,387,380,374,369,367,365,361,356,357,372,374,369,363,357,352,346,340,336,332,327,321,316,314,312,314,316,316,311,307,302,301,301,298,295,294,291,289,286,284,280,280,282,283,285,287,283,280,282,286,285,287,286,285,281,281,281,278,277,286,286,281,277,275,278,286,293,300,311,322,331,330,342,345,347,349,352,358,364,371,368,362,365,368,369,369,365,371,374,369,365,360,361,364,360,356,369,381,384,396,407,419,423,429,428,426,420,418,422,424,424,420,415,416,419,421,423,425,426,422,421,423,430,437,434,443,448,443,445,443,440,445,455,472,478,477,480,473,468,461,461,468,469,462,456,448,440,433,430,428,427,423,426,430,425,428,435,443,441,441,434,428,422,421,420,414,413,409,403,402,398,393,388,383,377,377,383,392,398,396,390,392,396,391,388,386,385,383,379,380,380,376,371,370,365,360,354,349,344,339,336,334,331,328,327,325,324,320,323,332,337,337,333,328,322,317,313,308,305,301,298,295,292,287,283,279,279,279,277,274,273,271,269,266,264,261,261,263,263,261,258,257,257,263,263,260,257,255,254,255,257,258,256,255,254,251,248,248,246,244,244,243,243,243,242,238,237,240,240,241,243,247,248,252,259,264,266,263,263,261,258,256,255,252,253,251,251,250,249,248,248,246,244,246,247,249,251,251,249,244,242,244,248,252,254,255,260,267,271,273,276,277,273,269,265,261,258,255,254,253,255,252,250,248,248,245,242,240,239,239,239,239,236,237,238,239,240,241,241,240,239,238,237,237,235,232,231,233,236,239,242,244,245,245,244,244,245,242,238,236,236,235,236,236,236,236,237,238,237,236,233,229,225,223,219,216,217,219,224,227,228,225,222,219,218,216,216,214,212,212,214,217,214,212,210,208,208,206,204,202,202,202,201,200,201,200,200,197,195,193,191,188,187,188,188,189,190,189,188,185,183,183,181,182,181,178,176,176,179,180,180,180,179,177,175,173,171,169,166,166,166,166,166,164,164,162,162,161,161,162,161,159,158,159,159,158,158,158,163,170,170,168,167,165,166,168,168,167,166,330,327,325,320,318,314,310,305,301,296,291,288,285,282,287,307,314,317,323,326,327,327,325,319,316,312,309,309,307,304,299,295
33,32,32,32,32,32,32,30,31,31,30,30,30,30,31,30,30,31,31,31,31,31,31,32,31,31,31,31,31,31,30,31,30,30,30,30,29,31,30,30,30,30,30,30,30,30,29,29,29,29,29,29,28,28,28,29,29,30,29,30,31,31,31,31,31,31,30,31,31,31,31,30,31,30,31,30,30,29,29,29,29,29,29,28,29,29,29,29,30,30,30,30,29,30,29,28,28,28,28,28,28,27,26,27,28,29,30,30,30,30,31,30,31,31,31,31,31,31,31,30,31,30,31,31,30,31,31,31,31,31,31,30,32,31,32,31,30,30,30,30,29,30,31,30,30,31,30,30,30,31,30,30,30,30,30,30,30,30,30,30,32,32,32,31,32,32,32,33,34,33,33,32,33,32,32,32,32,31,32,32,30,30,31,30,31,30,31,30,30,29,30,30,31,31,30,29,31,31,32,34,35,35,36,33,34,33,34,34,34,34,34,35,35,35,37,35,36,35,36,36,36,35,35,34,36,36,34,34,33,34,33,33,34,33,33,33,32,32,32,32,31,31,32,31,31,31,30,30,30,30,31,30,30,30,30,30,29,29,29,30,30,29,29,29,29,28,28,29,29,28,28,28,28,28,28,28,28,28,28,28,27,27,27,27,28,27,27,26,26,26,27,29,29,29,28,29,28,30,30,29,29,28,29,29,29,29,29,29,32,35,41,47,52,55,56,56,54,55,54,55,57,59,57,57,56,55,55,59,65,74,84,97,106,119,134,147,157,163,162,160,162,165,166,163,164,168,178,194,221,249,263,263,260,255,252,252,248,247,251,251,249,262,288,330,367,387,385,385,392,391,405,413,421,417,417,424,475,522,544,542,557,592,609,608,600,607,624,657,695,741,789,822,853,896,914,929,925,955,981,981,981,981,981,981,981,981,981,981,981,981,980,981,981,981,981,981,982,982,981,981,982,981,981,981,982,982,981,981,980,980,980,981,981,981,981,981,981,981,982,982,981,981,981,981,981,981,982,980,980,981,981,981,981,981,981,981,981,981,982,982,982,981,980,982,981,973,962,956,949,939,926,912,896,881,866,854,841,827,811,794,778,761,745,731,716,702,688,674,663,654,643,631,622,612,602,592,580,569,560,549,544,536,528,519,510,506,502,497,492,487,478,473,470,467,461,454,447,439,434,430,427,421,418,411,403,401,399,393,386,381,374,374,374,368,365,359,354,347,342,340,335,329,326,321,317,314,309,303,297,291,287,280,276,275,272,270,266,265,265,266,265,262,261,255,251,248,243,241,240,237,237,245,253,260,261,261,266,264,259,256,253,249,247,245,239,235,231,226,226,229,228,225,220,217,214,211,209,207,203,200,196,193,191,188,184,180,177,175,172,169,166,164,161,158,155,153,151,148,145,143,140,137,135,134,132,130,127,127,126,124,123,122,119,117,116,114,114,112,111,109,107,106,104,103,102,99,98,95,95,93,92,91,89,88,87,87,85,83,83,81,81,80,78,77,76,75,74,74,73,72,72,70,68,68,67,66,66,64,64,63,62,61,61,59,59,58,57,57,55,57,58,58,58,57,56,56,55,55,54,54,52,53,52,51,50,51,50,49,49,48,48,48,48,47,46,46,47,47,48,49,48,50,52,52,51,51,51,51,52,53,52,52,51,50,49,48,48,47,47,49,49,49,48,48,48,48,47,47,48,48,48,48,48,47,47,46,46,45,44,45,44,44,43,43,42,42,41,41,41,40,40,40,42,41,41,40,40,40,39,39,38,38,37,37,37,37,37,37,36,35,36,35,35,35,35,34,34,34,34,35,34,35,33,33,33,33,33,33,35,36,36,35,35,35,35,35,35,34,36,39,37,39,43,47,49,49,48,48,47,46,46,45,45,45,44,43,43,43,44,47,47,46,48,51,51,51,50,50,50,49,49,49,48,47,47,46,45,45,45,44,43,44,43,43,42,42,42,42,43,44,45,44,44,44,44,43,43,43,42,43,42,42,41,41,41,40,39,39,39,39,38,38,37,37,37,37,37,37,36,36,36,36,36,36,35,35,36,36,34,35,34,35,35,34,35,35,35,34,34,34,34,33,33,33,32,32,32,32,33,32,32,32,32,31,33,32,32,32,31,31,32,31,30,30,30,31,31,30,30,30,29,29,29,29,29,29,29,29,29,29,30,29,29,29,29,28,29,29,28,29,28,28,28,28,28,28,29,29,30,30,31,30,31,31,31,32,31,31,31,30,29,30,30,30,30,30,30,31,29,30,29
291,286,282,278,275,271,269,266,265,265,262,262,263,269,270,271,281,281,277,274,270,268,265,262,258,255,258,258,257,253,250,247,247,249,246,243,241,237,235,232,234,241,246,244,242,239,235,238,244,244,244,253,255,251,251,253,254,251,251,249,247,247,244,245,249,253,261,259,260,265,266,263,260,256,252,248,247,247,245,242,240,240,238,236,233,230,228,227,224,223,221,219,216,213,213,214,213,215,225,239,244,241,239,241,242,249,251,249,250,252,251,248,246,249,253,254,260,260,258,256,254,254,252,249,251,257,258,256,259,260,261,259,256,258,257,254,250,248,247,244,240,237,233,230,227,224,220,217,215,215,212,209,207,205,204,201,202,206,206,206,208,210,218,220,220,217,214,211,208,206,207,211,211,212,216,216,214,216,216,216,216,223,225,225,222,220,218,215,212,212,215,214,213,211,208,206,203,201,199,198,195,193,191,193,202,206,203,201,204,207,209,209,208,206,207,212,211,210,212,210,208,209,209,210,209,207,212,218,215,216,219,218,216,216,218,223,223,223,234,236,237,236,232,228,225,222,219,216,213,211,208,205,202,199,196,196,195,193,191,188,186,183,180,179,177,174,172,172,170,169,166,165,163,161,158,157,156,155,153,150,150,150,147,146,146,145,145,143,142,142,142,144,144,147,147,146,145,145,145,146,147,146,146,147,148,153,156,157,156,154,152,151,152,151,151,155,158,157,158,158,157,160,169,177,180,191,200,204,202,201,200,202,202,200,202,208,211,209,208,208,207,205,203,205,203,206,207,208,207,205,203,200,198,196,198,199,198,197,194,190,188,185,183,181,183,192,214,220,223,228,226,235,248,248,248,249,248,248,254,253,249,247,252,255,254,255,264,264,262,265,278,280,278,282,289,292,313,323,328,332,331,327,326,329,332,332,330,342,347,348,346,347,347,348,349,377,426,440,444,454,460,466,473,473,465,457,450,450,446,440,433,427,419,413,408,401,401,403,397,390,390,393,389,385,379,376,371,365,359,351,347,341,334,329,323,323,339,356,358,355,356,350,346,342,343,341,339,336,332,328,324,320,316,311,307,304,302,298,295,291,287,284,285,284,283,280,278,278,279,276,274,268,265,264,262,261,260,259,257,256,258,259,258,257,254,253,252,248,250,247,244,241,238,237,238,243,244,241,239,235,234,237,235,233,231,230,229,231,229,229,230,229,227,237,249,251,248,246,248,250,247,245,258,295,312,311,311,320,334,341,343,354,366,374,376,372,369,367,379,377,370,367,381,380,387,393,400,421,424,418,437,456,464,468,468,464,461,456,456,453,448,446,439,436,430,422,418,419,428,437,450,456,450,445,440,456,462,458,466,467,465,465,459,451,442,436,431,426,423,417,411,404,397,390,388,386,383,383,380,379,380,387,394,391,384,384,379,375,380,375,371,371,367,365,364,360,362,360,357,353,348,345,344,343,340,336,334,335,333,328,324,318,314,312,309,305,302,298,297,294,292,293,290,290,287,283,279,274,270,267,264,261,258,255,255,252,249,255,254,263,274,274,273,272,276,278,275,273,268,265,262,259,256,252,248,245,243,244,248,251,250,248,245,241,239,236,233,230,227,224,227,229,231,233,235,236,235,234,231,227,225,222,219,217,217,217,218,219,220,220,219,216,216,217,219,222,223,221,218,216,217,215,215,216,213,213,214,214,213,213,213,221,228,231,228,225,222,218,215,213,211,209,207,206,204,202,205,209,209,207,206,208,214,217,219,216,217,216,214,212,210,209,207,207,208,206,206,211,212,210,208,207,204,202,203,203,200,198,198,197,198,201,200,199,198,196,193,191,192,190,188,185,183,182,181,178,177,176,176,175,174,172,170,167,165,164,163,162,161,163,162,166,171,172,171,171,175,180,190,194,195,192,192,197,205,209,209,211,215,215,215,213,212,212,213,211,210,214,218,219,219,218,217,214,214,212,210,209,211,216,222,223,222,220,217,214,212,211,210,208,211,213,213,214,215,212,209,206,202,200,197,195,194,195,195,193,191,192,195,196,196,194,192,190,186,186,188,192,194,192,191,188,186,185,185,185,183,182,181,179,178,176,173,171,172,171,170,169,169,167,167,169,170,171,170,168,167,167,167,169,171,175,178,178,177,174,172,170,168,166,166,166,164,162,160,159,156,154,153,152,153,151,149,149,150,151,154,122,127,128,127,129,132,132,131,129,129,128,126,127,128,129,129,128,126,125,124,125,127,126,126,126,124,124,123,122,122,125,128,128,126
29,29,29,29,29,29,29,30,29,30,29,29,29,29,29,29,28,28,28,28,29,30,30,29,29,29,30,30,29,29,29,29,29,29,28,29,27,29,28,28,28,28,28,27,27,28,28,27,28,27,28,27,27,26,26,28,27,28,28,27,27,27,27,27,27,27,26,26,27,26,27,26,26,26,26,27,26,26,25,26,25,26,26,26,26,26,26,26,26,26,27,26,27,26,26,26,26,26,27,27,27,27,27,26,27,27,26,27,28,28,28,28,27,27,27,28,27,27,27,27,27,26,26,27,27,28,27,27,27,27,27,26,26,26,26,26,26,26,25,26,26,26,26,26,26,26,26,25,25,25,26,25,25,25,25,26,25,26,26,26,26,26,26,26,25,27,27,27,27,27,27,27,27,27,27,28,27,27,26,26,26,26,27,27,27,27,27,27,27,27,26,26,27,26,26,28,27,27,28,28,27,27,28,27,28,28,28,27,28,28,28,27,28,27,27,27,27,27,27,26,26,28,27,27,26,26,27,27,27,27,28,27,27,27,27,28,28,28,28,28,28,28,28,28,28,28,28,28,30,29,29,29,29,29,29,29,28,29,28,28,28,28,29,28,28,28,28,28,28,28,27,28,28,28,28,28,28,28,28,28,28,27,28,27,27,28,27,27,26,27,26,27,26,26,26,27,28,27,28,27,27,28,28,27,27,27,28,27,27,28,28,27,28,27,27,27,27,27,27,28,27,28,28,27,28,29,28,29,28,29,28,28,28,28,28,28,28,28,29,28,28,29,29,28,29,28,29,28,28,28,28,27,27,27,27,27,27,27,27,27,26,26,26,26,25,25,25,26,29,32,33,34,35,36,40,44,49,49,50,49,53,58,66,77,89,99,107,110,113,116,115,113,113,116,124,136,152,170,185,189,188,185,183,182,188,200,205,203,204,211,222,230,236,247,253,260,267,284,302,307,301,304,310,308,302,300,307,337,382,419,461,508,524,519,520,536,556,607,684,750,791,805,795,798,805,793,781,776,766,752,739,730,740,736,726,713,730,807,874,903,902,957,981,981,982,982,981,981,981,981,980,981,982,982,981,982,981,981,982,982,981,981,980,980,981,981,981,982,981,981,981,982,982,982,981,981,980,982,981,982,980,981,981,981,982,982,982,981,981,982,981,980,981,981,982,982,982,982,981,981,981,981,982,981,982,981,982,981,981,981,982,981,981,982,981,982,981,981,982,981,982,982,982,981,982,982,981,980,982,981,982,982,982,981,981,981,981,981,980,981,981,981,981,981,981,982,982,981,982,981,981,982,981,981,981,981,981,981,981,980,966,951,937,920,902,885,869,857,850,843,830,820,813,805,795,788,781,771,762,753,739,727,713,699,686,680,677,672,666,663,661,655,642,629,617,606,593,581,569,559,551,544,541,535,525,515,504,495,489,485,480,472,463,455,446,438,431,425,416,409,405,397,388,380,374,367,359,352,346,344,342,340,333,326,320,318,313,310,310,312,311,308,305,305,304,298,293,289,285,285,280,275,270,266,261,257,253,248,245,244,244,241,237,233,230,228,226,224,220,217,213,209,206,202,199,194,190,190,189,188,186,186,185,181,179,177,176,175,173,169,166,162,161,160,162,160,158,156,156,154,153,152,150,147,146,145,144,144,142,140,139,137,136,135,133,131,129,128,128,127,126,124,122,120,120,119,118,117,114,113,112,111,111,110,108,106,105,104,103,102,101,99,97,97,96,97,97,96,95,94,94,95,94,92,91,90,89,88,87,85,84,83,83,81,81,80,79,78,78,78,78,78,79,78,77,77,76,79,79,78,76,76,75,75,74,74,73,71,70,71,70,70,69,68,68,68,69,69,69,70,68,68,67,67,67,66,65,65,64,63,64,63,63,63,62,61,60,60,60,59,58,58,57,57,57,57,57,56,56,55,55,54,55,54,54,53,54,54,54,53,53,52,52,53,52,52,52,51,51,50,50,51,51,51,51,50,49,49,49,49,49,49,48,48,49,48,48,48,48,47,48,47,47,47,46,45,45,45,45,45,44,44,45,44,44,44,45,44,44,43,43,43,43,43,42,42,42,43,43,42,42,42,41,41,42,41,41,41,40,40,40,40,40,39,39,39,38,39,39,39,39,39,39,39,39,39,39,38,38,38,38,37,37,37,37,38,38,38,38,38,38,38,38,38,39,27,27,28,28,27,27,27,27,26,27,27,27,27,27,27,27,28,28,27,27,27,27,27,27,28,27,28,28,28,29,29,29,28,28,28,28
124,124,123,123,123,124,124,123,123,122,120,123,123,122,122,122,122,121,121,119,118,118,117,116,116,119,117,117,118,120,120,119,120,120,120,120,122,122,127,128,129,127,127,126,125,123,123,121,122,121,120,120,124,125,124,124,125,123,124,128,130,134,136,135,137,140,142,140,138,136,136,135,138,139,137,138,136,137,139,138,137,138,140,140,139,140,141,140,139,137,136,137,138,138,140,146,158,162,162,166,170,172,172,172,170,169,169,169,169,167,164,164,165,164,163,162,159,157,155,154,154,155,153,151,150,150,150,149,147,146,148,152,154,154,156,158,157,157,155,154,153,151,149,148,148,147,146,145,145,146,146,144,145,144,144,144,143,144,148,150,149,147,148,149,148,147,146,149,150,151,153,152,151,149,148,147,146,146,147,146,149,149,150,150,149,149,149,148,147,146,145,144,144,141,140,139,138,137,137,141,143,141,141,139,138,140,138,137,135,136,136,134,133,134,133,132,130,129,129,128,130,130,134,135,134,133,135,138,140,140,143,146,145,145,148,152,152,153,154,153,152,153,152,150,148,149,148,147,145,143,143,144,146,146,146,148,149,148,146,144,144,144,146,148,149,148,147,145,145,144,144,143,141,140,138,139,138,138,136,135,137,136,135,133,131,132,132,133,137,139,139,142,144,144,143,142,142,140,139,138,140,140,138,140,138,142,143,143,143,143,141,142,144,144,145,144,143,143,145,147,145,145,145,144,145,145,145,146,145,143,142,142,141,142,140,139,138,137,139,143,143,142,143,142,142,146,147,152,154,152,151,150,149,147,148,146,146,145,144,143,146,150,156,159,158,156,156,155,153,152,150,150,149,149,154,160,164,178,189,189,195,201,211,219,221,218,224,224,226,227,224,230,239,246,243,240,240,238,245,245,243,240,242,250,255,260,258,263,264,261,257,254,256,261,263,267,267,264,262,258,261,256,254,250,251,250,247,252,262,280,302,311,308,311,313,317,323,335,335,334,331,330,325,321,317,320,334,338,342,340,350,380,410,422,418,418,431,448,448,441,437,430,423,432,459,464,481,491,496,500,502,502,523,524,527,527,528,522,514,509,500,499,491,485,485,486,482,504,544,570,600,613,610,621,620,624,619,607,599,593,584,578,571,561,556,548,540,533,555,590,593,605,610,603,599,617,629,627,621,639,658,656,671,672,670,660,647,636,624,613,601,589,579,572,566,559,549,539,529,522,516,511,517,516,512,505,499,491,482,474,466,463,458,454,449,444,441,433,432,438,433,429,426,425,425,421,416,411,404,397,393,388,388,388,385,379,375,374,369,367,368,361,356,355,355,354,348,349,355,360,360,368,369,370,372,369,368,366,360,355,356,357,370,384,380,376,374,376,383,385,382,376,375,384,393,390,397,398,407,409,408,409,404,399,398,406,402,398,392,389,387,383,394,412,422,423,422,421,417,409,403,398,392,391,406,420,420,423,441,439,435,428,423,418,424,424,431,432,429,429,431,431,429,432,438,440,438,435,434,428,420,421,423,420,424,426,421,426,429,438,450,443,435,435,436,443,446,447,442,438,434,430,426,419,428,427,436,456,464,469,470,463,463,459,455,447,449,451,446,443,444,447,451,445,440,434,431,429,426,423,423,421,415,409,415,413,409,410,406,404,399,393,394,393,395,395,391,386,381,373,368,362,356,351,346,342,339,339,342,345,342,337,333,330,325,320,314,310,304,304,304,304,303,302,301,299,297,295,295,294,290,288,284,280,276,273,271,272,277,286,299,301,303,298,295,293,294,295,293,289,285,282,278,281,284,286,282,280,277,274,269,267,268,271,268,263,261,258,259,261,258,254,252,255,258,258,255,252,250,254,263,263,260,257,253,251,248,245,242,241,239,239,237,237,239,238,236,233,231,229,230,229,231,234,238,238,240,241,238,237,238,235,232,231,230,227,227,232,234,237,239,243,242,239,237,234,235,235,239,243,240,239,237,234,231,228,226,223,219,217,215,214,216,216,216,213,210,207,205,202,200,199,200,202,204,206,208,207,205,203,200,199,199,198,196,193,193,196,200,207,208,210,212,214,213,215,213,212,209,208,205,202,200,201,201,199,198,196,194,191,188,186,184,182,183,184,185,186,184,184,183,186,190,190,188,185,184,184,185,188,190,192,193,192,192,191,190,188,185,186,188,189,187,186,184,123,124,124,127,127,127,126,125,126,124,124,123,122,122,121,119,120,119,119,119,121,121,122,121,121,120,123,122,121,120,120,122,123,121,120,119
